SpectraSuite Data File
++++++++++++++++++++++++++++++++++++
Date: Fri Sep 15 20:01:46 BRT 2023
User: Alunos
Dark Spectrum Present: No
Reference Spectrum Present: No
Number of Sampled Component Spectra: 1
Spectrometers: USB4F07961
Integration Time (usec): 100000 (USB4F07961)
Spectra Averaged: 1 (USB4F07961)
Boxcar Smoothing: 0 (USB4F07961)
Correct for Electrical Dark: No (USB4F07961)
Strobe/Lamp Enabled: No (USB4F07961)
Correct for Detector Non-linearity: No (USB4F07961)
Correct for Stray Light: No (USB4F07961)
Number of Pixels in Processed Spectrum: 3648
>>>>>Begin Processed Spectral Data<<<<<
178,13	1267,69
178,35	1267,69
178,57	1267,69
178,78	1333,23
179,00	1251,31
179,22	1533,93
179,44	1550,31
179,66	1474,54
179,87	1482,73
180,09	1394,67
180,31	1482,73
180,53	1409,00
180,75	1384,43
180,96	1382,38
181,18	1447,91
181,40	1370,09
181,62	1439,72
181,84	1433,58
182,05	1513,45
182,27	1423,34
182,49	1468,39
182,71	1443,82
182,92	1529,83
183,14	1505,26
183,36	1474,54
183,58	1447,91
183,80	1611,75
184,01	1464,30
184,23	1521,64
184,45	1554,41
184,67	1505,26
184,89	1538,02
185,10	1523,69
185,32	1439,72
185,54	1482,73
185,76	1486,83
185,97	1464,30
186,19	1488,87
186,41	1458,15
186,63	1415,15
186,84	1456,11
187,06	1484,78
187,28	1531,88
187,50	1384,43
187,72	1523,69
187,93	1515,50
188,15	1521,64
188,37	1499,11
188,59	1464,30
188,80	1513,45
189,02	1441,77
189,24	1497,07
189,46	1480,68
189,67	1550,31
189,89	1488,87
190,11	1480,68
190,33	1570,79
190,54	1472,49
190,76	1513,45
190,98	1484,78
191,20	1439,72
191,41	1499,11
191,63	1587,18
191,85	1441,77
192,07	1447,91
192,28	1458,15
192,50	1472,49
192,72	1456,11
192,94	1439,72
193,15	1460,20
193,37	1523,69
193,59	1583,08
193,81	1447,91
194,02	1482,73
194,24	1464,30
194,46	1521,64
194,67	1472,49
194,89	1406,95
195,11	1490,92
195,33	1484,78
195,54	1488,87
195,76	1460,20
195,98	1431,53
196,20	1529,83
196,41	1460,20
196,63	1501,16
196,85	1568,74
197,06	1384,43
197,28	1505,26
197,50	1406,95
197,72	1495,02
197,93	1435,63
198,15	1521,64
198,37	1419,24
198,58	1492,97
198,80	1452,01
199,02	1431,53
199,24	1464,30
199,45	1462,25
199,67	1441,77
199,89	1480,68
200,10	1406,95
200,32	1460,20
200,54	1427,43
200,76	1433,58
200,97	1458,15
201,19	1386,47
201,41	1449,96
201,62	1484,78
201,84	1423,34
202,06	1538,02
202,28	1458,15
202,49	1538,02
202,71	1562,60
202,93	1480,68
203,14	1488,87
203,36	1521,64
203,58	1406,95
203,79	1443,82
204,01	1427,43
204,23	1456,11
204,44	1546,22
204,66	1472,49
204,88	1542,12
205,10	1540,07
205,31	1472,49
205,53	1499,11
205,75	1492,97
205,96	1439,72
206,18	1497,07
206,40	1433,58
206,61	1400,81
206,83	1417,19
207,05	1433,58
207,26	1472,49
207,48	1386,47
207,70	1456,11
207,91	1452,01
208,13	1439,72
208,35	1490,92
208,56	1406,95
208,78	1490,92
209,00	1499,11
209,21	1464,30
209,43	1490,92
209,65	1447,91
209,86	1427,43
210,08	1447,91
210,30	1482,73
210,51	1554,41
210,73	1507,30
210,95	1390,57
211,16	1513,45
211,38	1384,43
211,60	1447,91
211,81	1400,81
212,03	1548,26
212,25	1523,69
212,46	1472,49
212,68	1548,26
212,90	1417,19
213,11	1468,39
213,33	1515,50
213,55	1499,11
213,76	1554,41
213,98	1445,87
214,20	1468,39
214,41	1421,29
214,63	1505,26
214,84	1458,15
215,06	1488,87
215,28	1466,35
215,49	1480,68
215,71	1468,39
215,93	1578,98
216,14	1433,58
216,36	1476,59
216,58	1462,25
216,79	1431,53
217,01	1443,82
217,22	1431,53
217,44	1640,42
217,66	1521,64
217,87	1476,59
218,09	1406,95
218,31	1406,95
218,52	1529,83
218,74	1492,97
218,95	1480,68
219,17	1402,86
219,39	1476,59
219,60	1603,56
219,82	1456,11
220,04	1472,49
220,25	1480,68
220,47	1441,77
220,68	1540,07
220,90	1411,05
221,12	1497,07
221,33	1390,57
221,55	1538,02
221,77	1550,31
221,98	1538,02
222,20	1456,11
222,41	1505,26
222,63	1460,20
222,85	1556,46
223,06	1501,16
223,28	1466,35
223,49	1452,01
223,71	1390,57
223,93	1527,78
224,14	1513,45
224,36	1589,22
224,57	1505,26
224,79	1482,73
225,01	1431,53
225,22	1474,54
225,44	1480,68
225,65	1417,19
225,87	1488,87
226,09	1484,78
226,30	1533,93
226,52	1464,30
226,73	1431,53
226,95	1621,99
227,17	1515,50
227,38	1427,43
227,60	1509,35
227,81	1480,68
228,03	1452,01
228,24	1507,30
228,46	1525,74
228,68	1447,91
228,89	1474,54
229,11	1529,83
229,32	1490,92
229,54	1492,97
229,75	1492,97
229,97	1433,58
230,19	1357,80
230,40	1425,39
230,62	1415,15
230,83	1540,07
231,05	1513,45
231,26	1447,91
231,48	1464,30
231,70	1574,89
231,91	1374,19
232,13	1529,83
232,34	1529,83
232,56	1488,87
232,77	1447,91
232,99	1445,87
233,21	1701,86
233,42	1425,39
233,64	1521,64
233,85	1406,95
234,07	1425,39
234,28	1517,54
234,50	1447,91
234,71	1521,64
234,93	1587,18
235,15	1382,38
235,36	1447,91
235,58	1409,00
235,79	1439,72
236,01	1464,30
236,22	1521,64
236,44	1671,14
236,65	1415,15
236,87	1513,45
237,08	1505,26
237,30	1466,35
237,52	1392,62
237,73	1439,72
237,95	1497,07
238,16	1390,57
238,38	1513,45
238,59	1531,88
238,81	1497,07
239,02	1456,11
239,24	1515,50
239,45	1464,30
239,67	1490,92
239,88	1480,68
240,10	1474,54
240,31	1460,20
240,53	1431,53
240,74	1497,07
240,96	1531,88
241,18	1464,30
241,39	1425,39
241,61	1505,26
241,82	1447,91
242,04	1423,34
242,25	1447,91
242,47	1402,86
242,68	1464,30
242,90	1562,60
243,11	1427,43
243,33	1492,97
243,54	1540,07
243,76	1433,58
243,97	1529,83
244,19	1476,59
244,40	1480,68
244,62	1417,19
244,83	1423,34
245,05	1464,30
245,26	1449,96
245,48	1406,95
245,69	1540,07
245,91	1464,30
246,12	1384,43
246,34	1447,91
246,55	1538,02
246,77	1386,47
246,98	1488,87
247,20	1406,95
247,41	1472,49
247,63	1423,34
247,84	1431,53
248,06	1566,70
248,27	1515,50
248,49	1505,26
248,70	1464,30
248,92	1458,15
249,13	1447,91
249,35	1501,16
249,56	1484,78
249,78	1357,80
249,99	1433,58
250,21	1533,93
250,42	1433,58
250,64	1515,50
250,85	1490,92
251,06	1529,83
251,28	1464,30
251,49	1509,35
251,71	1439,72
251,92	1431,53
252,14	1482,73
252,35	1449,96
252,57	1447,91
252,78	1570,79
253,00	1423,34
253,21	1464,30
253,43	1406,95
253,64	1472,49
253,86	1490,92
254,07	1398,76
254,28	1398,76
254,50	1501,16
254,71	1472,49
254,93	1384,43
255,14	1439,72
255,36	1513,45
255,57	1447,91
255,79	1480,68
256,00	1538,02
256,22	1484,78
256,43	1464,30
256,64	1513,45
256,86	1542,12
257,07	1406,95
257,29	1411,05
257,50	1366,00
257,72	1427,43
257,93	1480,68
258,15	1597,42
258,36	1277,93
258,57	1472,49
258,79	1441,77
259,00	1472,49
259,22	1382,38
259,43	1409,00
259,65	1466,35
259,86	1480,68
260,08	1423,34
260,29	1646,57
260,50	1415,15
260,72	1816,55
260,93	1441,77
261,15	1464,30
261,36	1468,39
261,58	1439,72
261,79	1460,20
262,00	1417,19
262,22	1587,18
262,43	1488,87
262,65	1406,95
262,86	1476,59
263,07	1423,34
263,29	1492,97
263,50	1423,34
263,72	1538,02
263,93	1441,77
264,15	1488,87
264,36	1366,00
264,57	1488,87
264,79	1574,89
265,00	1449,96
265,22	1480,68
265,43	1540,07
265,64	1417,19
265,86	1439,72
266,07	1449,96
266,29	1439,72
266,50	1464,30
266,71	1452,01
266,93	1431,53
267,14	1472,49
267,36	1464,30
267,57	1603,56
267,78	1443,82
268,00	1587,18
268,21	1538,02
268,43	1525,74
268,64	1398,76
268,85	1366,00
269,07	1513,45
269,28	1505,26
269,50	1425,39
269,71	1423,34
269,92	1488,87
270,14	1564,65
270,35	1409,00
270,56	1546,22
270,78	1546,22
270,99	1439,72
271,21	1447,91
271,42	1425,39
271,63	1521,64
271,85	1550,31
272,06	1466,35
272,27	1406,95
272,49	1439,72
272,70	1507,30
272,92	1472,49
273,13	1447,91
273,34	1474,54
273,56	1464,30
273,77	1570,79
273,98	1531,88
274,20	1554,41
274,41	1447,91
274,63	1433,58
274,84	1460,20
275,05	1472,49
275,27	1464,30
275,48	1515,50
275,69	1513,45
275,91	1452,01
276,12	1423,34
276,33	1474,54
276,55	1482,73
276,76	1505,26
276,97	1507,30
277,19	1439,72
277,40	1382,38
277,61	1476,59
277,83	1447,91
278,04	1447,91
278,26	1513,45
278,47	1474,54
278,68	1521,64
278,90	1488,87
279,11	1415,15
279,32	1554,41
279,54	1505,26
279,75	1501,16
279,96	1521,64
280,18	1505,26
280,39	1523,69
280,60	1480,68
280,82	1589,22
281,03	1529,83
281,24	1578,98
281,46	1488,87
281,67	1501,16
281,88	1398,76
282,10	1431,53
282,31	1402,86
282,52	1472,49
282,74	1406,95
282,95	1499,11
283,16	1482,73
283,37	1501,16
283,59	1443,82
283,80	1505,26
284,01	1630,18
284,23	1415,15
284,44	1515,50
284,65	1603,56
284,87	1398,76
285,08	1542,12
285,29	1521,64
285,51	1478,63
285,72	1460,20
285,93	1507,30
286,15	1476,59
286,36	1433,58
286,57	1497,07
286,78	1466,35
287,00	1490,92
287,21	1431,53
287,42	1472,49
287,64	1499,11
287,85	1554,41
288,06	1513,45
288,28	1517,54
288,49	1466,35
288,70	1366,00
288,91	1529,83
289,13	1482,73
289,34	1505,26
289,55	1419,24
289,77	1415,15
289,98	1550,31
290,19	1482,73
290,40	1456,11
290,62	1523,69
290,83	1435,63
291,04	1472,49
291,26	1349,61
291,47	1466,35
291,68	1515,50
291,89	1521,64
292,11	1578,98
292,32	1423,34
292,53	1542,12
292,74	1513,45
292,96	1415,15
293,17	1456,11
293,38	1480,68
293,60	1507,30
293,81	1476,59
294,02	1417,19
294,23	1484,78
294,45	1472,49
294,66	1505,26
294,87	1431,53
295,08	1466,35
295,30	1533,93
295,51	1490,92
295,72	1550,31
295,93	1525,74
296,15	1554,41
296,36	1472,49
296,57	1546,22
296,78	1490,92
297,00	1406,95
297,21	1384,43
297,42	1464,30
297,63	1470,44
297,85	1509,35
298,06	1531,88
298,27	1464,30
298,48	1447,91
298,70	1480,68
298,91	1550,31
299,12	1409,00
299,33	1488,87
299,55	1482,73
299,76	1406,95
299,97	1513,45
300,18	1447,91
300,40	1390,57
300,61	1325,04
300,82	1466,35
301,03	1509,35
301,24	1447,91
301,46	1495,02
301,67	1433,58
301,88	1492,97
302,09	1417,19
302,31	1415,15
302,52	1447,91
302,73	1538,02
302,94	1558,50
303,15	1411,05
303,37	1386,47
303,58	1484,78
303,79	1503,21
304,00	1449,96
304,22	1423,34
304,43	1589,22
304,64	1490,92
304,85	1456,11
305,06	1538,02
305,28	1460,20
305,49	1501,16
305,70	1505,26
305,91	1406,95
306,12	1531,88
306,34	1400,81
306,55	1449,96
306,76	1409,00
306,97	1615,85
307,18	1449,96
307,40	1466,35
307,61	1464,30
307,82	1484,78
308,03	1458,15
308,24	1513,45
308,46	1398,76
308,67	1406,95
308,88	1525,74
309,09	1570,79
309,30	1542,12
309,52	1456,11
309,73	1497,07
309,94	1357,80
310,15	1411,05
310,36	1501,16
310,57	1562,60
310,79	1415,15
311,00	1443,82
311,21	1400,81
311,42	1501,16
311,63	1476,59
311,85	1517,54
312,06	1482,73
312,27	1529,83
312,48	1523,69
312,69	1492,97
312,90	1603,56
313,12	1533,93
313,33	1497,07
313,54	1589,22
313,75	1406,95
313,96	1540,07
314,17	1417,19
314,39	1456,11
314,60	1474,54
314,81	1603,56
315,02	1351,66
315,23	1398,76
315,44	1480,68
315,65	1507,30
315,87	1472,49
316,08	1497,07
316,29	1409,00
316,50	1400,81
316,71	1525,74
316,92	1423,34
317,14	1374,19
317,35	1423,34
317,56	1490,92
317,77	1439,72
317,98	1431,53
318,19	1480,68
318,40	1472,49
318,62	1550,31
318,83	1538,02
319,04	1488,87
319,25	1456,11
319,46	1570,79
319,67	1474,54
319,88	1533,93
320,09	1492,97
320,31	1497,07
320,52	1456,11
320,73	1499,11
320,94	1415,15
321,15	1452,01
321,36	1472,49
321,57	1507,30
321,78	1452,01
322,00	1439,72
322,21	1513,45
322,42	1464,30
322,63	1531,88
322,84	1406,95
323,05	1501,16
323,26	1415,15
323,47	1482,73
323,69	1492,97
323,90	1480,68
324,11	1431,53
324,32	1478,63
324,53	1402,86
324,74	1507,30
324,95	1554,41
325,16	1513,45
325,37	1406,95
325,59	1468,39
325,80	1497,07
326,01	1439,72
326,22	1540,07
326,43	1447,91
326,64	1570,79
326,85	1509,35
327,06	1439,72
327,27	1497,07
327,48	1513,45
327,69	1523,69
327,91	1423,34
328,12	1454,06
328,33	1343,47
328,54	1417,19
328,75	1464,30
328,96	1464,30
329,17	1419,24
329,38	1546,22
329,59	1433,58
329,80	1882,08
330,01	1505,26
330,23	1521,64
330,44	1441,77
330,65	1411,05
330,86	1468,39
331,07	1406,95
331,28	1538,02
331,49	1415,15
331,70	1529,83
331,91	1435,63
332,12	1466,35
332,33	1476,59
332,54	1546,22
332,75	1515,50
332,96	1449,96
333,17	1394,67
333,39	1538,02
333,60	1447,91
333,81	1472,49
334,02	1423,34
334,23	1515,50
334,44	1406,95
334,65	1384,43
334,86	1521,64
335,07	1480,68
335,28	1394,67
335,49	1546,22
335,70	1454,06
335,91	1425,39
336,12	1472,49
336,33	1488,87
336,54	1488,87
336,75	1368,04
336,96	1445,87
337,17	1488,87
337,39	1415,15
337,60	1484,78
337,81	1531,88
338,02	1484,78
338,23	1480,68
338,44	1423,34
338,65	1429,48
338,86	1529,83
339,07	1497,07
339,28	1423,34
339,49	1521,64
339,70	1484,78
339,91	1529,83
340,12	1505,26
340,33	1472,49
340,54	1466,35
340,75	1423,34
340,96	1406,95
341,17	1447,91
341,38	1382,38
341,59	1464,30
341,80	1556,46
342,01	1415,15
342,22	1449,96
342,43	1497,07
342,64	1513,45
342,85	1456,11
343,06	1480,68
343,27	1449,96
343,48	1515,50
343,69	1423,34
343,90	1439,72
344,11	1474,54
344,32	1513,45
344,53	1449,96
344,74	1452,01
344,95	1490,92
345,16	1513,45
345,37	1433,58
345,58	1472,49
345,79	1464,30
346,00	1554,41
346,21	1417,19
346,42	1513,45
346,63	1458,15
346,84	1521,64
347,05	1497,07
347,26	1433,58
347,47	1435,63
347,68	1529,83
347,89	1472,49
348,10	1529,83
348,31	1505,26
348,52	1439,72
348,73	1449,96
348,94	1464,30
349,15	1572,84
349,36	1384,43
349,57	1370,09
349,78	1484,78
349,99	1466,35
350,20	1531,88
350,41	1490,92
350,62	1406,95
350,83	1439,72
351,04	1409,00
351,25	1458,15
351,46	1398,76
351,67	1441,77
351,88	1366,00
352,09	1449,96
352,30	1505,26
352,50	1544,17
352,71	1460,20
352,92	1372,14
353,13	1456,11
353,34	1398,76
353,55	1521,64
353,76	1417,19
353,97	1533,93
354,18	1499,11
354,39	1480,68
354,60	1595,37
354,81	1452,01
355,02	1501,16
355,23	1476,59
355,44	1423,34
355,65	1447,91
355,86	1431,53
356,07	1478,63
356,28	1431,53
356,48	1505,26
356,69	1505,26
356,90	1433,58
357,11	1378,28
357,32	1497,07
357,53	1521,64
357,74	1501,16
357,95	1433,58
358,16	1439,72
358,37	1466,35
358,58	1402,86
358,79	1429,48
359,00	1488,87
359,21	1411,05
359,41	1562,60
359,62	1472,49
359,83	1382,38
360,04	1433,58
360,25	1480,68
360,46	1452,01
360,67	1386,47
360,88	1390,57
361,09	1587,18
361,30	1425,39
361,51	1484,78
361,72	1458,15
361,92	1589,22
362,13	1394,67
362,34	1431,53
362,55	1423,34
362,76	1329,13
362,97	1484,78
363,18	1464,30
363,39	1488,87
363,60	1447,91
363,81	1431,53
364,01	1513,45
364,22	1484,78
364,43	1472,49
364,64	1452,01
364,85	1589,22
365,06	1480,68
365,27	1452,01
365,48	1476,59
365,69	1492,97
365,89	1458,15
366,10	1546,22
366,31	1425,39
366,52	1472,49
366,73	1415,15
366,94	1570,79
367,15	1400,81
367,36	1499,11
367,57	1505,26
367,77	1550,31
367,98	1525,74
368,19	1458,15
368,40	1507,30
368,61	1390,57
368,82	1406,95
369,03	1480,68
369,23	1615,85
369,44	1435,63
369,65	1431,53
369,86	1538,02
370,07	1466,35
370,28	1456,11
370,49	1406,95
370,70	1458,15
370,90	1415,15
371,11	1423,34
371,32	1411,05
371,53	1517,54
371,74	1468,39
371,95	1529,83
372,16	1349,61
372,36	1423,34
372,57	1400,81
372,78	1464,30
372,99	1384,43
373,20	1472,49
373,41	1433,58
373,61	1515,50
373,82	1497,07
374,03	1417,19
374,24	1499,11
374,45	1562,60
374,66	1439,72
374,86	1595,37
375,07	1447,91
375,28	1550,31
375,49	1439,72
375,70	1464,30
375,91	1390,57
376,11	1474,54
376,32	1466,35
376,53	1505,26
376,74	1476,59
376,95	1873,89
377,16	1548,26
377,36	1400,81
377,57	1554,41
377,78	1382,38
377,99	1505,26
378,20	1492,97
378,40	1562,60
378,61	1550,31
378,82	1447,91
379,03	1439,72
379,24	1533,93
379,45	1492,97
379,65	1452,01
379,86	1472,49
380,07	1406,95
380,28	1423,34
380,49	1492,97
380,69	1574,89
380,90	1542,12
381,11	1570,79
381,32	1464,30
381,53	1402,86
381,73	1540,07
381,94	1443,82
382,15	1497,07
382,36	1499,11
382,57	1509,35
382,77	1447,91
382,98	1497,07
383,19	1464,30
383,40	1529,83
383,60	1447,91
383,81	1452,01
384,02	1570,79
384,23	1460,20
384,44	1472,49
384,64	1460,20
384,85	1529,83
385,06	1531,88
385,27	1464,30
385,48	1484,78
385,68	1472,49
385,89	1419,24
386,10	1480,68
386,31	1456,11
386,51	1540,07
386,72	1433,58
386,93	1492,97
387,14	1546,22
387,34	1415,15
387,55	1468,39
387,76	1402,86
387,97	1400,81
388,17	1490,92
388,38	1480,68
388,59	1472,49
388,80	1456,11
389,01	1505,26
389,21	1415,15
389,42	1529,83
389,63	1484,78
389,84	1345,52
390,04	1538,02
390,25	1505,26
390,46	1517,54
390,67	1497,07
390,87	1445,87
391,08	1488,87
391,29	1472,49
391,49	1490,92
391,70	1490,92
391,91	1554,41
392,12	1439,72
392,32	1480,68
392,53	1533,93
392,74	1497,07
392,95	1431,53
393,15	1513,45
393,36	1447,91
393,57	1472,49
393,78	1492,97
393,98	1578,98
394,19	1447,91
394,40	1521,64
394,60	1464,30
394,81	1583,08
395,02	1513,45
395,23	1499,11
395,43	1505,26
395,64	1613,80
395,85	1472,49
396,06	1411,05
396,26	1482,73
396,47	1464,30
396,68	1439,72
396,88	1503,21
397,09	1374,19
397,30	1499,11
397,50	1513,45
397,71	1490,92
397,92	1490,92
398,13	1480,68
398,33	1429,48
398,54	1562,60
398,75	1417,19
398,95	1515,50
399,16	1529,83
399,37	1521,64
399,57	1515,50
399,78	1415,15
399,99	1499,11
400,20	1628,14
400,40	1456,11
400,61	1431,53
400,82	1400,81
401,02	1531,88
401,23	1501,16
401,44	1497,07
401,64	1513,45
401,85	1521,64
402,06	1443,82
402,26	1509,35
402,47	1472,49
402,68	1679,33
402,88	1480,68
403,09	1562,60
403,30	1466,35
403,50	1398,76
403,71	1587,18
403,92	1439,72
404,12	1394,67
404,33	1581,03
404,54	1529,83
404,74	1583,08
404,95	1484,78
405,16	1452,01
405,36	1521,64
405,57	1488,87
405,78	1531,88
405,98	1464,30
406,19	1390,57
406,40	1460,20
406,60	1480,68
406,81	1392,62
407,02	1452,01
407,22	1439,72
407,43	1480,68
407,64	1472,49
407,84	1439,72
408,05	1427,43
408,26	1447,91
408,46	1540,07
408,67	1513,45
408,87	1357,80
409,08	1484,78
409,29	1603,56
409,49	1419,24
409,70	1472,49
409,91	1499,11
410,11	1449,96
410,32	1529,83
410,53	1433,58
410,73	1411,05
410,94	1439,72
411,14	1423,34
411,35	1480,68
411,56	1480,68
411,76	1546,22
411,97	1509,35
412,18	1458,15
412,38	1419,24
412,59	1406,95
412,79	1406,95
413,00	1513,45
413,21	1460,20
413,41	1427,43
413,62	1433,58
413,82	1452,01
414,03	1538,02
414,24	1558,50
414,44	1456,11
414,65	1466,35
414,86	1499,11
415,06	1521,64
415,27	1597,42
415,47	1585,13
415,68	1720,29
415,89	1751,01
416,09	1777,64
416,30	1800,16
416,50	1939,43
416,71	1957,86
416,92	1791,97
417,12	1783,78
417,33	1611,75
417,53	1554,41
417,74	1497,07
417,94	1630,18
418,15	1646,57
418,36	1595,37
418,56	1515,50
418,77	1556,46
418,97	1578,98
419,18	1669,09
419,39	1652,71
419,59	1769,44
419,80	1775,59
420,00	1818,60
420,21	1923,04
420,41	1931,23
420,62	1947,62
420,83	1939,43
421,03	1853,41
421,24	1791,97
421,44	1646,57
421,65	1630,18
421,85	1656,81
422,06	1456,11
422,27	1603,56
422,47	1495,02
422,68	1529,83
422,88	1454,06
423,09	1468,39
423,29	1480,68
423,50	1474,54
423,70	1583,08
423,91	1480,68
424,12	1382,38
424,32	1394,67
424,53	1443,82
424,73	1533,93
424,94	1525,74
425,14	1566,70
425,35	1554,41
425,55	1603,56
425,76	1628,14
425,96	1603,56
426,17	1589,22
426,37	1640,42
426,58	1693,67
426,79	1578,98
426,99	1824,74
427,20	1755,11
427,40	1751,01
427,61	1746,92
427,81	1767,40
428,02	1662,95
428,22	1644,52
428,43	1546,22
428,63	1488,87
428,84	1540,07
429,04	1382,38
429,25	1546,22
429,45	1509,35
429,66	1488,87
429,86	1439,72
430,07	1538,02
430,27	1578,98
430,48	1710,05
430,68	1517,54
430,89	1619,94
431,09	1480,68
431,30	1466,35
431,50	1538,02
431,71	1513,45
431,91	1409,00
432,12	1447,91
432,32	1568,74
432,53	1456,11
432,73	1431,53
432,94	1484,78
433,14	1433,58
433,35	1607,66
433,55	1554,41
433,76	1529,83
433,96	1671,14
434,17	1654,76
434,37	1581,03
434,58	1497,07
434,78	1529,83
434,99	1587,18
435,19	1474,54
435,40	1570,79
435,60	1538,02
435,81	1529,83
436,01	1435,63
436,22	1525,74
436,42	1433,58
436,63	1488,87
436,83	1497,07
437,04	1595,37
437,24	1464,30
437,45	1456,11
437,65	1484,78
437,86	1492,97
438,06	1521,64
438,26	1509,35
438,47	1460,20
438,67	1439,72
438,88	1472,49
439,08	1556,46
439,29	1472,49
439,49	1472,49
439,70	1507,30
439,90	1415,15
440,11	1474,54
440,31	1523,69
440,52	1529,83
440,72	1574,89
440,92	1431,53
441,13	1480,68
441,33	1538,02
441,54	1497,07
441,74	1366,00
441,95	1472,49
442,15	1447,91
442,36	1597,42
442,56	1562,60
442,76	1415,15
442,97	1374,19
443,17	1447,91
443,38	1546,22
443,58	1499,11
443,79	1462,25
443,99	1392,62
444,19	1521,64
444,40	1484,78
444,60	1409,00
444,81	1439,72
445,01	1497,07
445,22	1488,87
445,42	1411,05
445,62	1538,02
445,83	1439,72
446,03	1531,88
446,24	1460,20
446,44	1458,15
446,64	1406,95
446,85	1409,00
447,05	1431,53
447,26	1505,26
447,46	1507,30
447,67	1402,86
447,87	1507,30
448,07	1556,46
448,28	1431,53
448,48	1550,31
448,69	1458,15
448,89	1458,15
449,09	1472,49
449,30	1456,11
449,50	1435,63
449,71	1376,24
449,91	1488,87
450,11	1443,82
450,32	1439,72
450,52	1390,57
450,72	1431,53
450,93	1499,11
451,13	1515,50
451,34	1509,35
451,54	1525,74
451,74	1511,40
451,95	1531,88
452,15	1433,58
452,36	1521,64
452,56	1595,37
452,76	1505,26
452,97	1427,43
453,17	1525,74
453,37	1484,78
453,58	1382,38
453,78	1513,45
453,98	1468,39
454,19	1523,69
454,39	1464,30
454,60	1415,15
454,80	1521,64
455,00	1505,26
455,21	1398,76
455,41	1417,19
455,61	1505,26
455,82	1302,51
456,02	1464,30
456,22	1390,57
456,43	1417,19
456,63	1550,31
456,84	1452,01
457,04	1519,59
457,24	1513,45
457,45	1497,07
457,65	1435,63
457,85	1472,49
458,06	1472,49
458,26	1452,01
458,46	1439,72
458,67	1398,76
458,87	1558,50
459,07	1484,78
459,28	1497,07
459,48	1488,87
459,68	1427,43
459,89	1480,68
460,09	1488,87
460,29	1546,22
460,50	1415,15
460,70	1431,53
460,90	1474,54
461,11	1464,30
461,31	1460,20
461,51	1452,01
461,72	1441,77
461,92	1378,28
462,12	1505,26
462,32	1578,98
462,53	1433,58
462,73	1890,28
462,93	1349,61
463,14	1562,60
463,34	1529,83
463,54	1464,30
463,75	1562,60
463,95	1368,04
464,15	1615,85
464,36	1472,49
464,56	1490,92
464,76	1374,19
464,96	1447,91
465,17	1431,53
465,37	1441,77
465,57	1507,30
465,78	1513,45
465,98	1517,54
466,18	1460,20
466,39	1521,64
466,59	1505,26
466,79	1456,11
466,99	1490,92
467,20	1439,72
467,40	1394,67
467,60	1439,72
467,81	1370,09
468,01	1521,64
468,21	1431,53
468,41	1429,48
468,62	1570,79
468,82	1398,76
469,02	1521,64
469,22	1439,72
469,43	1456,11
469,63	1546,22
469,83	1441,77
470,04	1564,65
470,24	1587,18
470,44	1513,45
470,64	1497,07
470,85	1458,15
471,05	1398,76
471,25	1501,16
471,45	1538,02
471,66	1546,22
471,86	1505,26
472,06	1447,91
472,26	1488,87
472,47	1497,07
472,67	1456,11
472,87	1505,26
473,07	1488,87
473,28	1464,30
473,48	1566,70
473,68	1499,11
473,88	1505,26
474,09	1382,38
474,29	1513,45
474,49	1443,82
474,69	1480,68
474,90	1384,43
475,10	1499,11
475,30	1464,30
475,50	1513,45
475,70	1425,39
475,91	1529,83
476,11	1443,82
476,31	1492,97
476,51	1521,64
476,72	1497,07
476,92	1390,57
477,12	1468,39
477,32	1415,15
477,53	1431,53
477,73	1394,67
477,93	1484,78
478,13	1431,53
478,33	1415,15
478,54	1431,53
478,74	1447,91
478,94	1523,69
479,14	1398,76
479,34	1474,54
479,55	1523,69
479,75	1540,07
479,95	1466,35
480,15	1488,87
480,35	1488,87
480,56	1488,87
480,76	1452,01
480,96	1449,96
481,16	1447,91
481,36	1431,53
481,57	1394,67
481,77	1447,91
481,97	1464,30
482,17	1445,87
482,37	1458,15
482,58	1509,35
482,78	1433,58
482,98	1525,74
483,18	1490,92
483,38	1490,92
483,58	1480,68
483,79	1497,07
483,99	1433,58
484,19	1474,54
484,39	1431,53
484,59	1513,45
484,80	1460,20
485,00	1427,43
485,20	1447,91
485,40	1497,07
485,60	1591,27
485,80	1400,81
486,01	1464,30
486,21	1411,05
486,41	1562,60
486,61	1513,45
486,81	1447,91
487,01	1433,58
487,22	1505,26
487,42	1482,73
487,62	1464,30
487,82	1456,11
488,02	1474,54
488,22	1533,93
488,42	1570,79
488,63	1501,16
488,83	1447,91
489,03	1439,72
489,23	1570,79
489,43	1409,00
489,63	1644,52
489,83	1456,11
490,04	1484,78
490,24	1435,63
490,44	1419,24
490,64	1488,87
490,84	1374,19
491,04	1550,31
491,24	1439,72
491,44	1357,80
491,65	1447,91
491,85	1521,64
492,05	1521,64
492,25	1433,58
492,45	1443,82
492,65	1427,43
492,85	1447,91
493,05	1439,72
493,26	1466,35
493,46	1499,11
493,66	1474,54
493,86	1431,53
494,06	1464,30
494,26	1505,26
494,46	1464,30
494,66	1490,92
494,86	1449,96
495,07	1447,91
495,27	1460,20
495,47	1454,06
495,67	1406,95
495,87	1425,39
496,07	1464,30
496,27	1456,11
496,47	1484,78
496,67	1474,54
496,87	1458,15
497,08	1433,58
497,28	1531,88
497,48	1449,96
497,68	1464,30
497,88	1488,87
498,08	1439,72
498,28	1472,49
498,48	1417,19
498,68	1447,91
498,88	1435,63
499,08	1538,02
499,29	1492,97
499,49	1492,97
499,69	1443,82
499,89	1392,62
500,09	1402,86
500,29	1460,20
500,49	1482,73
500,69	1587,18
500,89	1558,50
501,09	1472,49
501,29	1484,78
501,49	1349,61
501,69	1368,04
501,89	1456,11
502,09	1497,07
502,30	1521,64
502,50	1578,98
502,70	1505,26
502,90	1548,26
503,10	1398,76
503,30	1447,91
503,50	1402,86
503,70	1480,68
503,90	1521,64
504,10	1447,91
504,30	1406,95
504,50	1406,95
504,70	1468,39
504,90	1497,07
505,10	1476,59
505,30	1513,45
505,50	1482,73
505,70	1546,22
505,90	1447,91
506,10	1591,27
506,30	1447,91
506,50	1562,60
506,70	1505,26
506,90	1525,74
507,11	1433,58
507,31	1437,67
507,51	1439,72
507,71	1492,97
507,91	1439,72
508,11	1521,64
508,31	1425,39
508,51	1458,15
508,71	1464,30
508,91	1466,35
509,11	1456,11
509,31	1497,07
509,51	1386,47
509,71	1488,87
509,91	1468,39
510,11	1374,19
510,31	1458,15
510,51	1554,41
510,71	1456,11
510,91	1417,19
511,11	1437,67
511,31	1535,98
511,51	1464,30
511,71	1374,19
511,91	1488,87
512,11	1460,20
512,31	1431,53
512,51	1488,87
512,71	1521,64
512,91	1480,68
513,11	1447,91
513,31	1439,72
513,51	1484,78
513,71	1415,15
513,91	1435,63
514,11	1619,94
514,31	1443,82
514,51	1490,92
514,71	1425,39
514,90	1406,95
515,10	1525,74
515,30	1529,83
515,50	1456,11
515,70	1525,74
515,90	1441,77
516,10	1540,07
516,30	1505,26
516,50	1447,91
516,70	1480,68
516,90	1433,58
517,10	1406,95
517,30	1513,45
517,50	1548,26
517,70	1480,68
517,90	1441,77
518,10	1497,07
518,30	1554,41
518,50	1497,07
518,70	1472,49
518,90	1513,45
519,10	1443,82
519,30	1572,84
519,50	1529,83
519,69	1546,22
519,89	1492,97
520,09	1525,74
520,29	1398,76
520,49	1472,49
520,69	1507,30
520,89	1431,53
521,09	1529,83
521,29	1818,60
521,49	1419,24
521,69	1513,45
521,89	1501,16
522,09	1423,34
522,29	1441,77
522,48	1546,22
522,68	1449,96
522,88	1480,68
523,08	1505,26
523,28	1550,31
523,48	1523,69
523,68	1423,34
523,88	1529,83
524,08	1476,59
524,28	1497,07
524,48	1499,11
524,68	1456,11
524,87	1464,30
525,07	1529,83
525,27	1490,92
525,47	1497,07
525,67	1452,01
525,87	1441,77
526,07	1456,11
526,27	1497,07
526,47	1488,87
526,67	1505,26
526,86	1382,38
527,06	1415,15
527,26	1431,53
527,46	1501,16
527,66	1529,83
527,86	1449,96
528,06	1409,00
528,26	1562,60
528,46	1540,07
528,65	1460,20
528,85	1447,91
529,05	1419,24
529,25	1447,91
529,45	1515,50
529,65	1523,69
529,85	1556,46
530,05	1472,49
530,24	1552,36
530,44	1431,53
530,64	1484,78
530,84	1474,54
531,04	1447,91
531,24	1554,41
531,44	1460,20
531,63	1439,72
531,83	1533,93
532,03	1546,22
532,23	1435,63
532,43	1554,41
532,63	1433,58
532,83	1482,73
533,02	1521,64
533,22	1538,02
533,42	1484,78
533,62	1415,15
533,82	1480,68
534,02	1482,73
534,22	1554,41
534,41	1443,82
534,61	1456,11
534,81	1505,26
535,01	1456,11
535,21	1525,74
535,41	1464,30
535,60	1447,91
535,80	1447,91
536,00	1351,66
536,20	1472,49
536,40	1474,54
536,60	1425,39
536,79	1488,87
536,99	1452,01
537,19	1591,27
537,39	1550,31
537,59	1472,49
537,78	1415,15
537,98	1472,49
538,18	1392,62
538,38	1597,42
538,58	1392,62
538,77	1466,35
538,97	1411,05
539,17	1497,07
539,37	1447,91
539,57	1474,54
539,77	1464,30
539,96	1458,15
540,16	1501,16
540,36	1505,26
540,56	1488,87
540,76	1394,67
540,95	1497,07
541,15	1456,11
541,35	1497,07
541,55	1525,74
541,74	1417,19
541,94	1472,49
542,14	1513,45
542,34	1460,20
542,54	1466,35
542,73	1513,45
542,93	1449,96
543,13	1447,91
543,33	1472,49
543,53	1419,24
543,72	1425,39
543,92	1423,34
544,12	1466,35
544,32	1583,08
544,51	1529,83
544,71	1466,35
544,91	1554,41
545,11	1464,30
545,30	1558,50
545,50	1533,93
545,70	1546,22
545,90	1480,68
546,10	1497,07
546,29	1556,46
546,49	1621,99
546,69	1501,16
546,89	1456,11
547,08	1460,20
547,28	1505,26
547,48	1472,49
547,68	1472,49
547,87	1423,34
548,07	1472,49
548,27	1464,30
548,47	1439,72
548,66	1476,59
548,86	1439,72
549,06	1417,19
549,25	1449,96
549,45	1548,26
549,65	1484,78
549,85	1607,66
550,04	1488,87
550,24	1433,58
550,44	1505,26
550,64	1548,26
550,83	1454,06
551,03	1513,45
551,23	1490,92
551,43	1558,50
551,62	1464,30
551,82	1488,87
552,02	1464,30
552,21	1415,15
552,41	1564,65
552,61	1578,98
552,81	1497,07
553,00	1488,87
553,20	1359,85
553,40	1492,97
553,59	1488,87
553,79	1540,07
553,99	1447,91
554,18	1480,68
554,38	1474,54
554,58	1431,53
554,78	1472,49
554,97	1431,53
555,17	1538,02
555,37	1501,16
555,56	1525,74
555,76	1490,92
555,96	1505,26
556,15	1546,22
556,35	1435,63
556,55	1554,41
556,74	1521,64
556,94	1513,45
557,14	1501,16
557,34	1476,59
557,53	1505,26
557,73	1456,11
557,93	1439,72
558,12	1507,30
558,32	1443,82
558,52	1476,59
558,71	1464,30
558,91	1441,77
559,11	1538,02
559,30	1515,50
559,50	1443,82
559,70	1447,91
559,89	1523,69
560,09	1480,68
560,29	1507,30
560,48	1513,45
560,68	1538,02
560,88	1523,69
561,07	1507,30
561,27	1529,83
561,46	1562,60
561,66	1542,12
561,86	1460,20
562,05	1497,07
562,25	1384,43
562,45	1464,30
562,64	1406,95
562,84	1513,45
563,04	1529,83
563,23	1464,30
563,43	1456,11
563,63	1513,45
563,82	1488,87
564,02	1542,12
564,21	1415,15
564,41	1484,78
564,61	1548,26
564,80	1574,89
565,00	1538,02
565,20	1513,45
565,39	1435,63
565,59	1456,11
565,78	1507,30
565,98	1628,14
566,18	1433,58
566,37	1531,88
566,57	1423,34
566,77	1447,91
566,96	1431,53
567,16	1497,07
567,35	1456,11
567,55	1548,26
567,75	1523,69
567,94	1449,96
568,14	1497,07
568,33	1505,26
568,53	1402,86
568,73	1587,18
568,92	1390,57
569,12	1529,83
569,31	1501,16
569,51	1409,00
569,71	1447,91
569,90	1447,91
570,10	1574,89
570,29	1531,88
570,49	1382,38
570,69	1546,22
570,88	1417,19
571,08	1376,24
571,27	1456,11
571,47	1456,11
571,66	1482,73
571,86	1415,15
572,06	1490,92
572,25	1357,80
572,45	1411,05
572,64	1447,91
572,84	1452,01
573,03	1542,12
573,23	1488,87
573,43	1464,30
573,62	1482,73
573,82	1505,26
574,01	1439,72
574,21	1419,24
574,40	1480,68
574,60	1529,83
574,79	1304,56
574,99	1513,45
575,19	1538,02
575,38	1474,54
575,58	1529,83
575,77	1519,59
575,97	1423,34
576,16	1515,50
576,36	1402,86
576,55	1490,92
576,75	1480,68
576,94	1480,68
577,14	1415,15
577,34	1447,91
577,53	1521,64
577,73	1466,35
577,92	1474,54
578,12	1523,69
578,31	1415,15
578,51	1529,83
578,70	1480,68
578,90	1564,65
579,09	1548,26
579,29	1480,68
579,48	1538,02
579,68	1515,50
579,87	1447,91
580,07	1472,49
580,26	1456,11
580,46	1415,15
580,65	1480,68
580,85	1492,97
581,04	1556,46
581,24	1456,11
581,43	1589,22
581,63	1474,54
581,82	1523,69
582,02	1521,64
582,21	1521,64
582,41	1492,97
582,60	1423,34
582,80	1452,01
582,99	1488,87
583,19	1490,92
583,38	1396,71
583,58	1476,59
583,77	1550,31
583,97	1509,35
584,16	1505,26
584,36	1472,49
584,55	1472,49
584,75	1443,82
584,94	1406,95
585,14	1540,07
585,33	1394,67
585,53	1531,88
585,72	1468,39
585,92	1525,74
586,11	1447,91
586,31	1572,84
586,50	1538,02
586,70	1513,45
586,89	1425,39
587,09	1400,81
587,28	1447,91
587,47	1521,64
587,67	1488,87
587,86	1531,88
588,06	1513,45
588,25	1441,77
588,45	1540,07
588,64	1464,30
588,84	1562,60
589,03	1505,26
589,23	1562,60
589,42	1474,54
589,61	1538,02
589,81	1611,75
590,00	1488,87
590,20	1509,35
590,39	1398,76
590,59	1458,15
590,78	1535,98
590,98	1392,62
591,17	1472,49
591,36	1480,68
591,56	1484,78
591,75	1611,75
591,95	1497,07
592,14	1509,35
592,34	1509,35
592,53	1554,41
592,72	1538,02
592,92	1480,68
593,11	1472,49
593,31	1497,07
593,50	1484,78
593,69	1587,18
593,89	1472,49
594,08	1542,12
594,28	1587,18
594,47	1490,92
594,67	1570,79
594,86	1464,30
595,05	1392,62
595,25	1581,03
595,44	1357,80
595,64	1505,26
595,83	1507,30
596,02	1554,41
596,22	1394,67
596,41	1499,11
596,61	1521,64
596,80	1423,34
596,99	1441,77
597,19	1390,57
597,38	1464,30
597,58	1521,64
597,77	1529,83
597,96	1409,00
598,16	1497,07
598,35	1533,93
598,54	1521,64
598,74	1472,49
598,93	1449,96
599,13	1499,11
599,32	1464,30
599,51	1384,43
599,71	1488,87
599,90	1513,45
600,09	1474,54
600,29	1431,53
600,48	1460,20
600,68	1513,45
600,87	1472,49
601,06	1638,38
601,26	1433,58
601,45	1435,63
601,64	1443,82
601,84	1513,45
602,03	1460,20
602,22	1497,07
602,42	1382,38
602,61	1456,11
602,80	1499,11
603,00	1591,27
603,19	1525,74
603,38	1693,67
603,58	1683,43
603,77	1654,76
603,96	1538,02
604,16	1531,88
604,35	1693,67
604,54	1630,18
604,74	1562,60
604,93	1685,48
605,12	1533,93
605,32	1546,22
605,51	1515,50
605,70	1466,35
605,90	1578,98
606,09	1562,60
606,28	1456,11
606,48	1599,46
606,67	1499,11
606,86	1570,79
607,06	1374,19
607,25	1515,50
607,44	1452,01
607,64	1447,91
607,83	1456,11
608,02	1423,34
608,22	1488,87
608,41	1488,87
608,60	1482,73
608,79	1529,83
608,99	1433,58
609,18	1654,76
609,37	1382,38
609,57	1497,07
609,76	1415,15
609,95	1460,20
610,15	1497,07
610,34	1497,07
610,53	1439,72
610,72	1474,54
610,92	1480,68
611,11	1480,68
611,30	1578,98
611,50	1439,72
611,69	1531,88
611,88	1490,92
612,07	1554,41
612,27	1488,87
612,46	1423,34
612,65	1398,76
612,84	1431,53
613,04	1488,87
613,23	1505,26
613,42	1406,95
613,62	1578,98
613,81	1521,64
614,00	1628,14
614,19	1472,49
614,39	1472,49
614,58	1570,79
614,77	1497,07
614,96	1538,02
615,16	1533,93
615,35	1480,68
615,54	1472,49
615,73	1488,87
615,93	1529,83
616,12	1611,75
616,31	1433,58
616,50	1570,79
616,70	1562,60
616,89	1480,68
617,08	1570,79
617,27	1509,35
617,47	1490,92
617,66	1488,87
617,85	1546,22
618,04	1521,64
618,23	1552,36
618,43	1497,07
618,62	1456,11
618,81	1548,26
619,00	1433,58
619,20	1460,20
619,39	1472,49
619,58	1636,33
619,77	1484,78
619,96	1513,45
620,16	1472,49
620,35	1513,45
620,54	1423,34
620,73	1400,81
620,93	1611,75
621,12	1523,69
621,31	1425,39
621,50	1587,18
621,69	1456,11
621,89	1456,11
622,08	1466,35
622,27	1370,09
622,46	1533,93
622,65	1464,30
622,85	1447,91
623,04	1540,07
623,23	1382,38
623,42	1439,72
623,61	1466,35
623,81	1464,30
624,00	1456,11
624,19	1488,87
624,38	1570,79
624,57	1492,97
624,76	1538,02
624,96	1464,30
625,15	1441,77
625,34	1398,76
625,53	1488,87
625,72	1488,87
625,91	1425,39
626,11	1435,63
626,30	1472,49
626,49	1531,88
626,68	1476,59
626,87	1423,34
627,06	1447,91
627,26	1433,58
627,45	1456,11
627,64	1509,35
627,83	1482,73
628,02	1540,07
628,21	1472,49
628,41	1480,68
628,60	1472,49
628,79	1439,72
628,98	1466,35
629,17	1474,54
629,36	1447,91
629,55	1443,82
629,75	1529,83
629,94	1499,11
630,13	1447,91
630,32	1441,77
630,51	1515,50
630,70	1523,69
630,89	1517,54
631,09	1515,50
631,28	1501,16
631,47	1578,98
631,66	1443,82
631,85	1447,91
632,04	1529,83
632,23	1513,45
632,42	1427,43
632,62	1513,45
632,81	1376,24
633,00	1492,97
633,19	1398,76
633,38	1439,72
633,57	1447,91
633,76	1509,35
633,95	1417,19
634,14	1384,43
634,34	1513,45
634,53	1460,20
634,72	1447,91
634,91	1550,31
635,10	1398,76
635,29	1447,91
635,48	1501,16
635,67	1484,78
635,86	1507,30
636,05	1531,88
636,24	1480,68
636,44	1425,39
636,63	1548,26
636,82	1423,34
637,01	1599,46
637,20	1447,91
637,39	1488,87
637,58	1433,58
637,77	1406,95
637,96	1611,75
638,15	1411,05
638,34	1472,49
638,53	1513,45
638,73	1521,64
638,92	1482,73
639,11	1538,02
639,30	1507,30
639,49	1472,49
639,68	1472,49
639,87	1505,26
640,06	1460,20
640,25	1482,73
640,44	1554,41
640,63	1546,22
640,82	1484,78
641,01	1480,68
641,20	1554,41
641,39	1480,68
641,58	1505,26
641,77	1646,57
641,96	1611,75
642,16	1540,07
642,35	1560,55
642,54	1665,00
642,73	1431,53
642,92	1658,85
643,11	1619,94
643,30	1521,64
643,49	1497,07
643,68	1540,07
643,87	1474,54
644,06	1578,98
644,25	1482,73
644,44	1535,98
644,63	1578,98
644,82	1466,35
645,01	1423,34
645,20	1505,26
645,39	1505,26
645,58	1458,15
645,77	1460,20
645,96	1513,45
646,15	1515,50
646,34	1482,73
646,53	1427,43
646,72	1497,07
646,91	1441,77
647,10	1398,76
647,29	1505,26
647,48	1558,50
647,67	1441,77
647,86	1431,53
648,05	1441,77
648,24	1538,02
648,43	1509,35
648,62	1488,87
648,81	1466,35
649,00	1439,72
649,19	1488,87
649,38	1435,63
649,57	1466,35
649,76	1378,28
649,95	1595,37
650,14	1505,26
650,33	1406,95
650,52	1521,64
650,71	1447,91
650,90	1439,72
651,09	1431,53
651,28	1472,49
651,47	1423,34
651,66	1382,38
651,85	1423,34
652,04	1458,15
652,23	1372,14
652,42	1460,20
652,61	1374,19
652,80	1529,83
652,99	1431,53
653,17	1497,07
653,36	1480,68
653,55	1578,98
653,74	1439,72
653,93	1515,50
654,12	1519,59
654,31	1456,11
654,50	1431,53
654,69	1472,49
654,88	1554,41
655,07	1515,50
655,26	1533,93
655,45	1472,49
655,64	1480,68
655,83	1458,15
656,02	1507,30
656,21	1499,11
656,39	1505,26
656,58	1472,49
656,77	1366,00
656,96	1538,02
657,15	1431,53
657,34	1529,83
657,53	1447,91
657,72	1529,83
657,91	1480,68
658,10	1513,45
658,29	1417,19
658,48	1423,34
658,67	1464,30
658,85	1492,97
659,04	1402,86
659,23	1488,87
659,42	1521,64
659,61	1523,69
659,80	1472,49
659,99	1509,35
660,18	1394,67
660,37	1468,39
660,56	1460,20
660,74	1538,02
660,93	1513,45
661,12	1501,16
661,31	1466,35
661,50	1531,88
661,69	1398,76
661,88	1525,74
662,07	1517,54
662,26	1507,30
662,44	1488,87
662,63	1550,31
662,82	1460,20
663,01	1538,02
663,20	1433,58
663,39	1472,49
663,58	1497,07
663,77	1480,68
663,95	1497,07
664,14	1441,77
664,33	1376,24
664,52	1406,95
664,71	1538,02
664,90	1509,35
665,09	1419,24
665,27	1570,79
665,46	1480,68
665,65	1546,22
665,84	1513,45
666,03	1521,64
666,22	1558,50
666,41	1578,98
666,59	1464,30
666,78	1472,49
666,97	1521,64
667,16	1554,41
667,35	1538,02
667,54	1566,70
667,72	1601,51
667,91	1751,01
668,10	1693,67
668,29	1679,33
668,48	1726,44
668,67	1761,25
668,85	1613,80
669,04	1671,14
669,23	1556,46
669,42	1624,04
669,61	1521,64
669,80	1595,37
669,98	1525,74
670,17	1572,84
670,36	1488,87
670,55	1456,11
670,74	1501,16
670,92	1511,40
671,11	1591,27
671,30	1447,91
671,49	1546,22
671,68	1529,83
671,86	1415,15
672,05	1597,42
672,24	1454,06
672,43	1480,68
672,62	1525,74
672,80	1456,11
672,99	1474,54
673,18	1499,11
673,37	1447,91
673,56	1497,07
673,74	1505,26
673,93	1513,45
674,12	1447,91
674,31	1474,54
674,50	1484,78
674,68	1445,87
674,87	1482,73
675,06	1644,52
675,25	1597,42
675,43	1671,14
675,62	1628,14
675,81	1669,09
676,00	1701,86
676,19	1718,25
676,37	1669,09
676,56	1718,25
676,75	1574,89
676,94	1497,07
677,12	1554,41
677,31	1562,60
677,50	1562,60
677,69	1505,26
677,87	1402,86
678,06	1574,89
678,25	1468,39
678,44	1513,45
678,62	1423,34
678,81	1472,49
679,00	1464,30
679,19	1415,15
679,37	1456,11
679,56	1513,45
679,75	1513,45
679,94	1595,37
680,12	1456,11
680,31	1521,64
680,50	1523,69
680,68	1570,79
680,87	1382,38
681,06	1505,26
681,25	1505,26
681,43	1521,64
681,62	1456,11
681,81	1452,01
682,00	1499,11
682,18	1538,02
682,37	1456,11
682,56	1447,91
682,74	1499,11
682,93	1521,64
683,12	1509,35
683,31	1562,60
683,49	1460,20
683,68	1488,87
683,87	1429,48
684,05	1474,54
684,24	1435,63
684,43	1456,11
684,61	1490,92
684,80	1417,19
684,99	1447,91
685,18	1400,81
685,36	1505,26
685,55	1474,54
685,74	1433,58
685,92	1439,72
686,11	1415,15
686,30	1515,50
686,48	1472,49
686,67	1460,20
686,86	1562,60
687,04	1603,56
687,23	1628,14
687,42	1652,71
687,60	1673,19
687,79	1714,15
687,98	1640,42
688,16	1660,90
688,35	1636,33
688,54	1769,44
688,72	2045,92
688,91	1570,79
689,10	1628,14
689,28	1525,74
689,47	1662,95
689,66	1587,18
689,84	1497,07
690,03	1480,68
690,22	1466,35
690,40	1570,79
690,59	1538,02
690,78	1472,49
690,96	1431,53
691,15	1458,15
691,34	1540,07
691,52	1529,83
691,71	1490,92
691,89	1513,45
692,08	1466,35
692,27	1531,88
692,45	1464,30
692,64	1490,92
692,83	1411,05
693,01	1423,34
693,20	1574,89
693,38	1499,11
693,57	1554,41
693,76	1587,18
693,94	1662,95
694,13	1759,21
694,32	1572,84
694,50	1617,90
694,69	1564,65
694,87	1548,26
695,06	1595,37
695,25	1581,03
695,43	1591,27
695,62	1636,33
695,80	2246,62
695,99	3473,36
696,18	5781,42
696,36	8593,28
696,55	11339,60
696,73	14180,14
696,92	15800,08
697,11	16148,23
697,29	15501,08
697,48	13834,03
697,66	12359,49
697,85	10819,42
698,04	9860,97
698,22	8841,08
698,41	7993,22
698,59	7108,50
698,78	6111,14
698,96	5130,16
699,15	4245,44
699,34	3356,62
699,52	2883,54
699,71	2432,99
699,89	2168,80
700,08	1886,18
700,26	1796,07
700,45	1736,68
700,64	1693,67
700,82	1634,28
701,01	1548,26
701,19	1593,32
701,38	1558,50
701,56	1587,18
701,75	1480,68
701,93	1433,58
702,12	1513,45
702,31	1554,41
702,49	1462,25
702,68	1523,69
702,86	1654,76
703,05	1681,38
703,23	1667,05
703,42	1832,93
703,60	1628,14
703,79	1642,47
703,97	1652,71
704,16	1726,44
704,34	1660,90
704,53	1636,33
704,72	1523,69
704,90	1597,42
705,09	1591,27
705,27	1613,80
705,46	1591,27
705,64	1621,99
705,83	1630,18
706,01	2047,97
706,20	3045,33
706,38	4814,77
706,57	6838,17
706,75	8750,97
706,94	10827,61
707,12	11958,09
707,31	12042,06
707,49	11585,36
707,68	10483,55
707,86	9394,03
708,05	8230,79
708,23	7550,86
708,42	6872,98
708,60	6133,67
708,79	5490,60
708,97	4956,08
709,16	4351,93
709,34	3512,27
709,53	2979,79
709,71	2693,08
709,90	2248,67
710,08	2037,73
710,27	1820,64
710,45	1695,72
710,64	1677,29
710,82	1581,03
711,00	2004,96
711,19	1624,04
711,37	1546,22
711,56	1464,30
711,74	1529,83
711,93	1554,41
712,11	1564,65
712,30	1443,82
712,48	1474,54
712,67	1654,76
712,85	1578,98
713,04	1548,26
713,22	1546,22
713,40	1505,26
713,59	1464,30
713,77	1609,70
713,96	1562,60
714,14	1759,21
714,33	1974,24
714,51	2234,33
714,70	2422,75
714,88	2832,34
715,06	2930,64
715,25	3049,43
715,43	2924,50
715,62	2807,77
715,80	2725,85
715,99	2480,09
716,17	2381,79
716,35	2375,64
716,54	2291,68
716,72	2168,80
716,91	1998,82
717,09	1970,15
717,28	1873,89
717,46	1873,89
717,64	1726,44
717,83	1636,33
718,01	1497,07
718,20	1513,45
718,38	1554,41
718,56	1482,73
718,75	1550,31
718,93	1570,79
719,12	1503,21
719,30	1505,26
719,48	1505,26
719,67	1556,46
719,85	1488,87
720,04	1490,92
720,22	1435,63
720,40	1366,00
720,59	1570,79
720,77	1548,26
720,96	1669,09
721,14	1521,64
721,32	1558,50
721,51	1441,77
721,69	1480,68
721,87	1587,18
722,06	1548,26
722,24	1566,70
722,43	1505,26
722,61	1499,11
722,79	1480,68
722,98	1554,41
723,16	1587,18
723,34	1542,12
723,53	1439,72
723,71	1472,49
723,90	1529,83
724,08	1507,30
724,26	1464,30
724,45	1533,93
724,63	1517,54
724,81	1521,64
725,00	1449,96
725,18	1431,53
725,36	1497,07
725,55	1488,87
725,73	1464,30
725,91	1509,35
726,10	1513,45
726,28	1603,56
726,46	1566,70
726,65	1808,36
726,83	2310,11
727,01	2785,24
727,20	3430,35
727,38	4169,66
727,56	4687,80
727,75	5167,03
727,93	5019,57
728,11	4732,86
728,30	4487,10
728,48	4042,69
728,66	3774,41
728,85	3436,49
729,03	3266,51
729,21	3061,71
729,40	3033,04
729,58	2734,04
729,76	2422,75
729,94	2213,85
730,13	2017,25
730,31	1808,36
730,49	1558,50
730,68	1591,27
730,86	1562,60
731,04	1589,22
731,23	1538,02
731,41	1548,26
731,59	1497,07
731,77	1607,66
731,96	1624,04
732,14	1591,27
732,32	1585,13
732,51	1488,87
732,69	1456,11
732,87	1488,87
733,05	1630,18
733,24	1495,02
733,42	1529,83
733,60	1443,82
733,79	1546,22
733,97	1495,02
734,15	1492,97
734,33	1564,65
734,52	1468,39
734,70	1613,80
734,88	1603,56
735,06	1564,65
735,25	1562,60
735,43	1638,38
735,61	1505,26
735,79	1581,03
735,98	1607,66
736,16	2045,92
736,34	1613,80
736,52	1603,56
736,71	1621,99
736,89	1570,79
737,07	1783,78
737,25	1701,86
737,44	1775,59
737,62	2230,24
737,80	3274,70
737,98	5380,01
738,17	7997,32
738,35	10889,05
738,53	13932,33
738,71	16099,08
738,89	17239,80
739,08	16824,06
739,26	16062,22
739,44	14509,86
739,62	13117,24
739,81	11667,28
739,99	10346,34
740,17	9246,58
740,35	7991,17
740,53	7198,61
740,72	5982,12
740,90	4988,85
741,08	3938,24
741,26	3145,68
741,44	2553,82
741,63	2203,61
741,81	2045,92
741,99	1890,28
742,17	1791,97
742,35	1744,87
742,54	1642,47
742,72	1722,34
742,90	1603,56
743,08	1640,42
743,26	1597,42
743,45	1720,29
743,63	1644,52
743,81	1644,52
743,99	1615,85
744,17	1570,79
744,35	1648,61
744,54	1605,61
744,72	1603,56
744,90	1578,98
745,08	1558,50
745,26	1660,90
745,44	1488,87
745,63	1572,84
745,81	1513,45
745,99	1628,14
746,17	1570,79
746,35	1554,41
746,53	1595,37
746,72	1546,22
746,90	1628,14
747,08	1556,46
747,26	1570,79
747,44	1660,90
747,62	1652,71
747,81	1638,38
747,99	1562,60
748,17	1603,56
748,35	1562,60
748,53	1628,14
748,71	1660,90
748,89	1726,44
749,07	1685,48
749,26	1669,09
749,44	1751,01
749,62	2078,69
749,80	3399,63
749,98	5644,20
750,16	8722,30
750,34	11736,91
750,52	15187,74
750,71	18175,72
750,89	20670,15
751,07	22496,94
751,25	24696,46
751,43	25884,28
751,61	27604,57
751,79	28165,71
751,97	27792,98
752,15	26310,25
752,34	24094,35
752,52	21292,73
752,70	18200,30
752,88	16037,64
753,06	13363,00
753,24	11034,46
753,42	8988,53
753,60	7419,79
753,78	6320,03
753,96	5285,81
754,15	4399,04
754,33	3573,71
754,51	2832,34
754,69	2455,51
754,87	2187,23
755,05	2013,15
755,23	1837,03
755,41	1673,19
755,59	1751,01
755,77	1710,05
755,95	1574,89
756,13	1693,67
756,31	1542,12
756,50	1613,80
756,68	1548,26
756,86	1654,76
757,04	1507,30
757,22	1646,57
757,40	1611,75
757,58	1509,35
757,76	1595,37
757,94	1652,71
758,12	1611,75
758,30	1619,94
758,48	1523,69
758,66	1546,22
758,84	1630,18
759,02	1685,48
759,20	1538,02
759,38	1554,41
759,56	1540,07
759,74	1710,05
759,92	1572,84
760,10	1603,56
760,28	1562,60
760,47	1554,41
760,65	1611,75
760,83	1693,67
761,01	1587,18
761,19	1654,76
761,37	1644,52
761,55	1687,53
761,73	1638,38
761,91	1677,29
762,09	1703,91
762,27	1785,83
762,45	1882,08
762,63	2435,03
762,81	4603,83
762,99	10000,23
763,17	18937,57
763,35	30578,22
763,53	42179,96
763,71	52597,98
763,89	60607,59
764,07	63415,35
764,25	62622,79
764,43	58434,69
764,61	51629,29
764,79	44168,54
764,97	37078,47
765,15	31077,93
765,33	24825,48
765,51	19822,29
765,69	16432,90
765,87	13819,69
766,05	11468,62
766,23	9541,49
766,41	7325,58
766,58	5660,59
766,76	4290,49
766,94	3401,68
767,12	2686,94
767,30	2482,14
767,48	2105,31
767,66	2021,35
767,84	1935,33
768,02	1875,94
768,20	1785,83
768,38	1816,55
768,56	1775,59
768,74	1712,10
768,92	1628,14
769,10	1656,81
769,28	1646,57
769,46	1701,86
769,64	1693,67
769,82	1703,91
770,00	1679,33
770,18	1628,14
770,36	1662,95
770,53	1636,33
770,71	1587,18
770,89	1638,38
771,07	1626,09
771,25	1656,81
771,43	1812,45
771,61	2152,42
771,79	3489,74
771,97	6350,75
772,15	10524,51
772,33	14831,39
772,51	18949,85
772,69	23027,36
772,86	26031,73
773,04	26803,82
773,22	25564,79
773,40	23004,83
773,58	19730,13
773,76	16250,63
773,94	13084,47
774,12	10631,01
774,30	8757,11
774,48	7427,98
774,65	6152,10
774,83	5543,85
775,01	4964,28
775,19	4218,82
775,37	3422,16
775,55	2967,51
775,73	2537,43
775,91	2160,61
776,09	2004,96
776,26	1832,93
776,44	1751,01
776,62	1730,53
776,80	1662,95
776,98	1624,04
777,16	1556,46
777,34	1613,80
777,52	1599,46
777,69	1613,80
777,87	1538,02
778,05	1581,03
778,23	1570,79
778,41	1660,90
778,59	1578,98
778,77	1554,41
778,94	1523,69
779,12	1611,75
779,30	1546,22
779,48	1589,22
779,66	1587,18
779,84	1589,22
780,02	1505,26
780,19	1480,68
780,37	1529,83
780,55	1546,22
780,73	1509,35
780,91	1636,33
781,09	1566,70
781,26	1587,18
781,44	1552,36
781,62	1456,11
781,80	1595,37
781,98	1513,45
782,16	1431,53
782,33	1564,65
782,51	1603,56
782,69	1497,07
782,87	1531,88
783,05	1542,12
783,22	1763,30
783,40	1546,22
783,58	1542,12
783,76	1497,07
783,94	1581,03
784,12	1505,26
784,29	1488,87
784,47	1570,79
784,65	1529,83
784,83	1550,31
785,01	1554,41
785,18	1505,26
785,36	1515,50
785,54	1636,33
785,72	1574,89
785,89	1611,75
786,07	1409,00
786,25	1464,30
786,43	1509,35
786,61	1449,96
786,78	1425,39
786,96	1628,14
787,14	1597,42
787,32	1546,22
787,49	1611,75
787,67	1533,93
787,85	1517,54
788,03	1480,68
788,21	1611,75
788,38	1492,97
788,56	1531,88
788,74	1505,26
788,92	1578,98
789,09	1597,42
789,27	1540,07
789,45	1677,29
789,63	1505,26
789,80	1589,22
789,98	1570,79
790,16	1603,56
790,34	1476,59
790,51	1554,41
790,69	1570,79
790,87	1519,59
791,05	1488,87
791,22	1546,22
791,40	1546,22
791,58	1540,07
791,76	1574,89
791,93	1611,75
792,11	1538,02
792,29	1476,59
792,46	1515,50
792,64	1578,98
792,82	1589,22
793,00	1521,64
793,17	1497,07
793,35	1566,70
793,53	1628,14
793,70	1599,46
793,88	1669,09
794,06	2041,82
794,24	2996,18
794,41	4782,01
794,59	7231,38
794,77	9983,85
794,94	12560,19
795,12	14837,53
795,30	15709,97
795,47	15322,90
795,65	13846,32
795,83	12097,35
796,01	9713,52
796,18	8218,50
796,36	6657,95
796,54	5797,80
796,71	5347,25
796,89	4618,17
797,07	4339,65
797,24	3979,20
797,42	3841,99
797,60	3536,84
797,77	3246,03
797,95	2824,15
798,13	2492,38
798,30	2295,77
798,48	1898,47
798,66	1923,04
798,83	1810,40
799,01	1738,73
799,19	1728,49
799,36	1693,67
799,54	1687,53
799,72	1808,36
799,89	2086,88
800,07	2906,07
800,25	4188,10
800,42	6113,19
800,60	8288,13
800,78	10788,70
800,95	13524,79
801,13	16242,44
801,30	18763,49
801,48	20696,77
801,66	22496,94
801,83	23285,40
802,01	22132,40
802,19	20559,56
802,36	18251,50
802,54	15111,96
802,72	12785,47
802,89	10782,56
803,07	8963,96
803,24	8091,52
803,42	7247,76
803,60	6420,38
803,77	5767,08
803,95	5242,80
804,12	4716,47
804,30	4167,62
804,48	3561,42
804,65	3143,63
804,83	2783,19
805,01	2361,31
805,18	2127,84
805,36	1935,33
805,53	1751,01
805,71	1712,10
805,88	1677,29
806,06	1714,15
806,24	1597,42
806,41	1636,33
806,59	1630,18
806,76	1540,07
806,94	1619,94
807,12	1644,52
807,29	1595,37
807,47	1562,60
807,64	1701,86
807,82	1685,48
807,99	1566,70
808,17	1644,52
808,35	1611,75
808,52	1714,15
808,70	1708,01
808,87	1638,38
809,05	1695,72
809,22	1742,82
809,40	1726,44
809,58	1923,04
809,75	2488,28
809,93	4038,59
810,10	6430,62
810,28	9338,74
810,45	12443,46
810,63	15015,71
810,80	16807,68
810,98	19414,74
811,15	23590,55
811,33	28106,32
811,51	33285,64
811,68	38510,00
811,86	42261,88
812,03	42732,92
812,21	39953,82
812,38	35526,11
812,56	30412,34
812,73	24825,48
812,91	20809,41
813,08	17858,29
813,26	15505,17
813,43	14090,02
813,61	12412,74
813,78	11233,11
813,96	9709,42
814,13	8681,34
814,31	7870,34
814,48	7067,54
814,66	6199,20
814,83	5183,41
815,01	4126,66
815,18	3463,12
815,36	2758,61
815,53	2449,37
815,71	2164,70
815,88	2021,35
816,06	1867,75
816,23	1730,53
816,41	1636,33
816,58	1677,29
816,76	1923,04
816,93	1583,08
817,11	1660,90
817,28	1578,98
817,46	1634,28
817,63	1564,65
817,81	1562,60
817,98	1597,42
818,16	1529,83
818,33	1497,07
818,51	1589,22
818,68	1425,39
818,86	1591,27
819,03	1523,69
819,21	1587,18
819,38	1538,02
819,55	1499,11
819,73	1525,74
819,90	1497,07
820,08	1499,11
820,25	1630,18
820,43	1529,83
820,60	1523,69
820,78	1578,98
820,95	1546,22
821,12	1507,30
821,30	1521,64
821,47	1513,45
821,65	1564,65
821,82	1613,80
822,00	1523,69
822,17	1562,60
822,35	1540,07
822,52	1597,42
822,69	1507,30
822,87	1513,45
823,04	1531,88
823,22	1548,26
823,39	1409,00
823,56	1499,11
823,74	1423,34
823,91	1531,88
824,09	1574,89
824,26	1441,77
824,44	1452,01
824,61	1632,23
824,78	1564,65
824,96	1546,22
825,13	1591,27
825,31	1564,65
825,48	1619,94
825,65	1734,63
825,83	2162,66
826,00	3258,32
826,18	4675,51
826,35	6141,86
826,52	7452,56
826,70	8263,55
826,87	8984,44
827,04	8863,61
827,22	7987,08
827,39	7223,19
827,57	6201,25
827,74	5486,51
827,91	4790,20
828,09	4423,61
828,26	4153,28
828,43	3979,20
828,61	3708,87
828,78	3426,25
828,96	3225,55
829,13	3096,53
829,30	3049,43
829,48	2793,43
829,65	2635,74
829,82	2324,44
830,00	2242,53
830,17	1939,43
830,34	1785,83
830,52	1673,19
830,69	1589,22
830,86	1603,56
831,04	1529,83
831,21	1572,84
831,38	1546,22
831,56	1513,45
831,73	1521,64
831,90	1488,87
832,08	1505,26
832,25	1578,98
832,42	1476,59
832,60	1515,50
832,77	1509,35
832,94	1443,82
833,12	1439,72
833,29	1447,91
833,46	1417,19
833,64	1464,30
833,81	1548,26
833,98	1548,26
834,16	1476,59
834,33	1538,02
834,50	1505,26
834,67	1513,45
834,85	1523,69
835,02	1417,19
835,19	1548,26
835,37	1509,35
835,54	1464,30
835,71	1480,68
835,89	1468,39
836,06	1540,07
836,23	1374,19
836,40	1558,50
836,58	1589,22
836,75	1603,56
836,92	1409,00
837,10	1433,58
837,27	1419,24
837,44	1525,74
837,61	1480,68
837,79	1484,78
837,96	1488,87
838,13	1546,22
838,30	1585,13
838,48	1488,87
838,65	1458,15
838,82	1523,69
838,99	1564,65
839,17	1605,61
839,34	1507,30
839,51	1570,79
839,69	1581,03
839,86	1654,76
840,03	1931,23
840,20	2660,31
840,37	3856,33
840,55	5355,44
840,72	7085,97
840,89	8615,80
841,06	9983,85
841,24	10567,52
841,41	10272,61
841,58	9723,76
841,75	9451,38
841,93	9312,11
842,10	10794,84
842,27	12687,17
842,44	14321,45
842,62	16025,36
842,79	17018,62
842,96	16609,03
843,13	15759,12
843,30	14444,32
843,48	12650,30
843,65	11149,14
843,82	10334,05
843,99	9305,97
844,16	8511,36
844,34	7872,39
844,51	6993,81
844,68	6363,04
844,85	5855,14
845,02	5171,12
845,20	4716,47
845,37	4464,57
845,54	4319,17
845,71	3774,41
845,88	3504,07
846,06	3020,75
846,23	2693,08
846,40	2340,83
846,57	1984,48
846,74	1808,36
846,91	1865,70
847,09	1759,21
847,26	1593,32
847,43	1621,99
847,60	1578,98
847,77	1562,60
847,94	1533,93
848,12	1597,42
848,29	1558,50
848,46	1474,54
848,63	1517,54
848,80	1546,22
848,97	1529,83
849,15	1591,27
849,32	1441,77
849,49	1452,01
849,66	1492,97
849,83	1480,68
850,00	1466,35
850,17	1452,01
850,35	1603,56
850,52	1611,75
850,69	1558,50
850,86	1554,41
851,03	1482,73
851,20	1589,22
851,37	1767,40
851,55	1998,82
851,72	2725,85
851,89	3491,79
852,06	4057,03
852,23	4921,27
852,40	5519,28
852,57	5664,68
852,74	5666,73
852,92	5158,83
853,09	4822,97
853,26	4544,44
853,43	4198,34
853,60	3997,64
853,77	3792,84
853,94	3504,07
854,11	3446,73
854,28	3651,53
854,45	3209,17
854,63	2881,49
854,80	2818,00
854,97	2787,29
855,14	2631,64
855,31	2652,12
855,48	2369,50
855,65	2242,53
855,82	2152,42
855,99	1925,09
856,16	1767,40
856,33	1759,21
856,50	1630,18
856,68	1603,56
856,85	1628,14
857,02	1480,68
857,19	1488,87
857,36	1562,60
857,53	1480,68
857,70	1558,50
857,87	1441,77
858,04	1419,24
858,21	1427,43
858,38	1456,11
858,55	1603,56
858,72	1456,11
858,89	1484,78
859,06	1611,75
859,23	1505,26
859,40	1566,70
859,58	1501,16
859,75	1482,73
859,92	1472,49
860,09	1540,07
860,26	1507,30
860,43	1468,39
860,60	1413,10
860,77	1482,73
860,94	1472,49
861,11	1488,87
861,28	1574,89
861,45	1529,83
861,62	1513,45
861,79	1525,74
861,96	1406,95
862,13	1480,68
862,30	1398,76
862,47	1406,95
862,64	1728,49
862,81	1464,30
862,98	1474,54
863,15	1572,84
863,32	1505,26
863,49	1464,30
863,66	1497,07
863,83	1480,68
864,00	1400,81
864,17	1578,98
864,34	1490,92
864,51	1456,11
864,68	1550,31
864,85	1466,35
865,02	1525,74
865,19	1449,96
865,36	1464,30
865,53	1460,20
865,70	1484,78
865,87	1488,87
866,04	1472,49
866,21	1578,98
866,38	1669,09
866,55	1673,19
866,72	1886,18
866,89	2078,69
867,06	2054,11
867,23	2103,26
867,40	2226,14
867,57	2103,26
867,73	2070,50
867,90	2021,35
868,07	1984,48
868,24	1990,63
868,41	1906,66
868,58	1923,04
868,75	1830,88
868,92	1843,17
869,09	1804,26
869,26	1875,94
869,43	1767,40
869,60	1679,33
869,77	1671,14
869,94	1677,29
870,11	1722,34
870,28	1578,98
870,45	1578,98
870,61	1595,37
870,78	1552,36
870,95	1562,60
871,12	1638,38
871,29	1554,41
871,46	1546,22
871,63	1472,49
871,80	1386,47
871,97	1490,92
872,14	1669,09
872,31	1468,39
872,47	1456,11
872,64	1423,34
872,81	1443,82
872,98	1456,11
873,15	1484,78
873,32	1480,68
873,49	1533,93
873,66	1376,24
873,83	1480,68
874,00	1568,74
874,16	1468,39
874,33	1423,34
874,50	1415,15
874,67	1480,68
874,84	1466,35
875,01	1482,73
875,18	1495,02
875,35	1466,35
875,51	1466,35
875,68	1513,45
875,85	1566,70
876,02	1472,49
876,19	1546,22
876,36	1517,54
876,53	1443,82
876,69	1591,27
876,86	1531,88
877,03	1501,16
877,20	1529,83
877,37	1546,22
877,54	1472,49
877,71	1474,54
877,87	1521,64
878,04	1513,45
878,21	1468,39
878,38	1449,96
878,55	1472,49
878,72	1482,73
878,88	1443,82
879,05	1619,94
879,22	1468,39
879,39	1507,30
879,56	1482,73
879,73	1540,07
879,89	1470,44
880,06	1533,93
880,23	1525,74
880,40	1492,97
880,57	1447,91
880,74	1497,07
880,90	1501,16
881,07	1521,64
881,24	1525,74
881,41	1488,87
881,58	1411,05
881,74	1464,30
881,91	1437,67
882,08	1505,26
882,25	1570,79
882,42	1400,81
882,58	1636,33
882,75	1439,72
882,92	1443,82
883,09	1472,49
883,26	1566,70
883,42	1517,54
883,59	1517,54
883,76	1464,30
883,93	1468,39
884,09	1513,45
884,26	1554,41
884,43	1538,02
884,60	1492,97
884,77	1578,98
884,93	1505,26
885,10	1564,65
885,27	1550,31
885,44	1624,04
885,60	1591,27
885,77	1572,84
885,94	1449,96
886,11	1562,60
886,27	1447,91
886,44	1599,46
886,61	1556,46
886,78	1497,07
886,94	1533,93
887,11	1564,65
887,28	1417,19
887,45	1456,11
887,61	1533,93
887,78	1595,37
887,95	1474,54
888,12	1521,64
888,28	1454,06
888,45	1533,93
888,62	1458,15
888,78	1415,15
888,95	1472,49
889,12	1499,11
889,29	1507,30
889,45	1409,00
889,62	1564,65
889,79	1513,45
889,95	1488,87
890,12	1564,65
890,29	1435,63
890,46	1439,72
890,62	1507,30
>>>>>End Processed Spectral Data<<<<<
