SpectraSuite Data File
++++++++++++++++++++++++++++++++++++
Date: Fri Sep 15 19:57:28 BRT 2023
User: Alunos
Dark Spectrum Present: No
Reference Spectrum Present: No
Number of Sampled Component Spectra: 1
Spectrometers: USB4F07961
Integration Time (usec): 100000 (USB4F07961)
Spectra Averaged: 1 (USB4F07961)
Boxcar Smoothing: 0 (USB4F07961)
Correct for Electrical Dark: No (USB4F07961)
Strobe/Lamp Enabled: No (USB4F07961)
Correct for Detector Non-linearity: No (USB4F07961)
Correct for Stray Light: No (USB4F07961)
Number of Pixels in Processed Spectrum: 3648
>>>>>Begin Processed Spectral Data<<<<<
178,13	1329,13
178,35	1329,13
178,57	1329,13
178,78	1234,93
179,00	1212,40
179,22	1425,39
179,44	1480,68
179,66	1443,82
179,87	1497,07
180,09	1507,30
180,31	1497,07
180,53	1429,48
180,75	1480,68
180,96	1357,80
181,18	1515,50
181,40	1341,42
181,62	1359,85
181,84	1406,95
182,05	1447,91
182,27	1357,80
182,49	1499,11
182,71	1425,39
182,92	1540,07
183,14	1402,86
183,36	1361,90
183,58	1349,61
183,80	1521,64
184,01	1390,57
184,23	1523,69
184,45	1499,11
184,67	1452,01
184,89	1402,86
185,10	1538,02
185,32	1439,72
185,54	1523,69
185,76	1490,92
185,97	1458,15
186,19	1505,26
186,41	1468,39
186,63	1505,26
186,84	1392,62
187,06	1540,07
187,28	1587,18
187,50	1357,80
187,72	1497,07
187,93	1529,83
188,15	1374,19
188,37	1447,91
188,59	1402,86
188,80	1456,11
189,02	1398,76
189,24	1456,11
189,46	1499,11
189,67	1546,22
189,89	1576,94
190,11	1464,30
190,33	1507,30
190,54	1548,26
190,76	1523,69
190,98	1415,15
191,20	1411,05
191,41	1406,95
191,63	1480,68
191,85	1349,61
192,07	1390,57
192,28	1529,83
192,50	1390,57
192,72	1427,43
192,94	1497,07
193,15	1466,35
193,37	1562,60
193,59	1578,98
193,81	1513,45
194,02	1474,54
194,24	1419,24
194,46	1476,59
194,67	1449,96
194,89	1374,19
195,11	1499,11
195,33	1521,64
195,54	1505,26
195,76	1497,07
195,98	1443,82
196,20	1419,24
196,41	1449,96
196,63	1472,49
196,85	1472,49
197,06	1441,77
197,28	1492,97
197,50	1398,76
197,72	1376,24
197,93	1390,57
198,15	1464,30
198,37	1435,63
198,58	1517,54
198,80	1452,01
199,02	1605,61
199,24	1484,78
199,45	1497,07
199,67	1370,09
199,89	1456,11
200,10	1472,49
200,32	1439,72
200,54	1427,43
200,76	1433,58
200,97	1433,58
201,19	1341,42
201,41	1447,91
201,62	1425,39
201,84	1435,63
202,06	1505,26
202,28	1513,45
202,49	1523,69
202,71	1538,02
202,93	1452,01
203,14	1480,68
203,36	1433,58
203,58	1376,24
203,79	1376,24
204,01	1515,50
204,23	1460,20
204,44	1538,02
204,66	1456,11
204,88	1556,46
205,10	1409,00
205,31	1466,35
205,53	1482,73
205,75	1411,05
205,96	1480,68
206,18	1458,15
206,40	1406,95
206,61	1411,05
206,83	1382,38
207,05	1398,76
207,26	1476,59
207,48	1474,54
207,70	1507,30
207,91	1466,35
208,13	1482,73
208,35	1433,58
208,56	1431,53
208,78	1509,35
209,00	1497,07
209,21	1488,87
209,43	1447,91
209,65	1431,53
209,86	1431,53
210,08	1488,87
210,30	1564,65
210,51	1538,02
210,73	1439,72
210,95	1464,30
211,16	1431,53
211,38	1366,00
211,60	1415,15
211,81	1390,57
212,03	1513,45
212,25	1523,69
212,46	1466,35
212,68	1497,07
212,90	1464,30
213,11	1390,57
213,33	1554,41
213,55	1499,11
213,76	1517,54
213,98	1441,77
214,20	1447,91
214,41	1449,96
214,63	1488,87
214,84	1480,68
215,06	1490,92
215,28	1482,73
215,49	1456,11
215,71	1513,45
215,93	1517,54
216,14	1417,19
216,36	1562,60
216,58	1423,34
216,79	1366,00
217,01	1423,34
217,22	1447,91
217,44	1562,60
217,66	1488,87
217,87	1482,73
218,09	1406,95
218,31	1427,43
218,52	1472,49
218,74	1480,68
218,95	1474,54
219,17	1417,19
219,39	1497,07
219,60	1505,26
219,82	1464,30
220,04	1488,87
220,25	1476,59
220,47	1447,91
220,68	1548,26
220,90	1423,34
221,12	1480,68
221,33	1460,20
221,55	1464,30
221,77	1466,35
221,98	1488,87
222,20	1513,45
222,41	1509,35
222,63	1480,68
222,85	1505,26
223,06	1433,58
223,28	1507,30
223,49	1441,77
223,71	1456,11
223,93	1466,35
224,14	1533,93
224,36	1574,89
224,57	1497,07
224,79	1402,86
225,01	1415,15
225,22	1474,54
225,44	1400,81
225,65	1439,72
225,87	1490,92
226,09	1425,39
226,30	1570,79
226,52	1474,54
226,73	1433,58
226,95	1535,98
227,17	1464,30
227,38	1454,06
227,60	1521,64
227,81	1400,81
228,03	1351,66
228,24	1628,14
228,46	1490,92
228,68	1447,91
228,89	1490,92
229,11	1447,91
229,32	1564,65
229,54	1423,34
229,75	1525,74
229,97	1419,24
230,19	1480,68
230,40	1443,82
230,62	1361,90
230,83	1423,34
231,05	1398,76
231,26	1382,38
231,48	1398,76
231,70	1556,46
231,91	1419,24
232,13	1361,90
232,34	1497,07
232,56	1472,49
232,77	1499,11
232,99	1499,11
233,21	1718,25
233,42	1458,15
233,64	1480,68
233,85	1431,53
234,07	1406,95
234,28	1484,78
234,50	1490,92
234,71	1505,26
234,93	1472,49
235,15	1349,61
235,36	1429,48
235,58	1458,15
235,79	1456,11
236,01	1390,57
236,22	1521,64
236,44	1515,50
236,65	1458,15
236,87	1497,07
237,08	1406,95
237,30	1439,72
237,52	1497,07
237,73	1398,76
237,95	1417,19
238,16	1366,00
238,38	1406,95
238,59	1415,15
238,81	1611,75
239,02	1480,68
239,24	1443,82
239,45	1466,35
239,67	1501,16
239,88	1464,30
240,10	1521,64
240,31	1546,22
240,53	1398,76
240,74	1433,58
240,96	1505,26
241,18	1464,30
241,39	1402,86
241,61	1374,19
241,82	1423,34
242,04	1499,11
242,25	1431,53
242,47	1466,35
242,68	1447,91
242,90	1474,54
243,11	1423,34
243,33	1464,30
243,54	1636,33
243,76	1425,39
243,97	1529,83
244,19	1464,30
244,40	1452,01
244,62	1447,91
244,83	1398,76
245,05	1386,47
245,26	1433,58
245,48	1439,72
245,69	1488,87
245,91	1474,54
246,12	1433,58
246,34	1443,82
246,55	1480,68
246,77	1431,53
246,98	1525,74
247,20	1447,91
247,41	1394,67
247,63	1423,34
247,84	1531,88
248,06	1546,22
248,27	1456,11
248,49	1507,30
248,70	1472,49
248,92	1423,34
249,13	1406,95
249,35	1447,91
249,56	1439,72
249,78	1435,63
249,99	1480,68
250,21	1431,53
250,42	1431,53
250,64	1464,30
250,85	1501,16
251,06	1572,84
251,28	1382,38
251,49	1472,49
251,71	1351,66
251,92	1484,78
252,14	1452,01
252,35	1374,19
252,57	1486,83
252,78	1507,30
253,00	1443,82
253,21	1359,85
253,43	1411,05
253,64	1456,11
253,86	1497,07
254,07	1378,28
254,28	1402,86
254,50	1513,45
254,71	1497,07
254,93	1390,57
255,14	1400,81
255,36	1482,73
255,57	1513,45
255,79	1433,58
256,00	1447,91
256,22	1535,98
256,43	1540,07
256,64	1581,03
256,86	1529,83
257,07	1392,62
257,29	1431,53
257,50	1335,28
257,72	1456,11
257,93	1316,84
258,15	1499,11
258,36	1320,94
258,57	1513,45
258,79	1464,30
259,00	1521,64
259,22	1472,49
259,43	1406,95
259,65	1464,30
259,86	1415,15
260,08	1341,42
260,29	1679,33
260,50	1431,53
260,72	1800,16
260,93	1386,47
261,15	1419,24
261,36	1458,15
261,58	1390,57
261,79	1449,96
262,00	1546,22
262,22	1591,27
262,43	1497,07
262,65	1415,15
262,86	1505,26
263,07	1456,11
263,29	1525,74
263,50	1480,68
263,72	1443,82
263,93	1482,73
264,15	1447,91
264,36	1447,91
264,57	1447,91
264,79	1546,22
265,00	1470,44
265,22	1447,91
265,43	1468,39
265,64	1435,63
265,86	1415,15
266,07	1480,68
266,29	1439,72
266,50	1482,73
266,71	1570,79
266,93	1456,11
267,14	1490,92
267,36	1466,35
267,57	1474,54
267,78	1456,11
268,00	1554,41
268,21	1509,35
268,43	1529,83
268,64	1406,95
268,85	1345,52
269,07	1460,20
269,28	1452,01
269,50	1423,34
269,71	1456,11
269,92	1480,68
270,14	1484,78
270,35	1415,15
270,56	1497,07
270,78	1415,15
270,99	1495,02
271,21	1431,53
271,42	1490,92
271,63	1456,11
271,85	1390,57
272,06	1452,01
272,27	1449,96
272,49	1456,11
272,70	1497,07
272,92	1521,64
273,13	1447,91
273,34	1505,26
273,56	1427,43
273,77	1521,64
273,98	1488,87
274,20	1466,35
274,41	1474,54
274,63	1417,19
274,84	1464,30
275,05	1452,01
275,27	1439,72
275,48	1468,39
275,69	1472,49
275,91	1505,26
276,12	1447,91
276,33	1415,15
276,55	1476,59
276,76	1435,63
276,97	1615,85
277,19	1415,15
277,40	1431,53
277,61	1435,63
277,83	1425,39
278,04	1499,11
278,26	1474,54
278,47	1511,40
278,68	1513,45
278,90	1456,11
279,11	1417,19
279,32	1492,97
279,54	1513,45
279,75	1423,34
279,96	1488,87
280,18	1427,43
280,39	1521,64
280,60	1417,19
280,82	1492,97
281,03	1431,53
281,24	1572,84
281,46	1556,46
281,67	1464,30
281,88	1382,38
282,10	1509,35
282,31	1382,38
282,52	1482,73
282,74	1406,95
282,95	1523,69
283,16	1466,35
283,37	1472,49
283,59	1447,91
283,80	1458,15
284,01	1490,92
284,23	1439,72
284,44	1423,34
284,65	1554,41
284,87	1423,34
285,08	1513,45
285,29	1492,97
285,51	1484,78
285,72	1415,15
285,93	1529,83
286,15	1490,92
286,36	1366,00
286,57	1431,53
286,78	1456,11
287,00	1499,11
287,21	1472,49
287,42	1374,19
287,64	1447,91
287,85	1443,82
288,06	1546,22
288,28	1525,74
288,49	1398,76
288,70	1482,73
288,91	1423,34
289,13	1505,26
289,34	1519,59
289,55	1437,67
289,77	1431,53
289,98	1513,45
290,19	1488,87
290,40	1443,82
290,62	1521,64
290,83	1427,43
291,04	1468,39
291,26	1382,38
291,47	1417,19
291,68	1482,73
291,89	1447,91
292,11	1546,22
292,32	1497,07
292,53	1535,98
292,74	1456,11
292,96	1480,68
293,17	1390,57
293,38	1538,02
293,60	1449,96
293,81	1433,58
294,02	1490,92
294,23	1456,11
294,45	1492,97
294,66	1525,74
294,87	1472,49
295,08	1441,77
295,30	1546,22
295,51	1447,91
295,72	1562,60
295,93	1517,54
296,15	1499,11
296,36	1492,97
296,57	1505,26
296,78	1486,83
297,00	1431,53
297,21	1460,20
297,42	1484,78
297,63	1411,05
297,85	1529,83
298,06	1464,30
298,27	1449,96
298,48	1488,87
298,70	1439,72
298,91	1669,09
299,12	1460,20
299,33	1562,60
299,55	1492,97
299,76	1392,62
299,97	1449,96
300,18	1368,04
300,40	1349,61
300,61	1488,87
300,82	1447,91
301,03	1449,96
301,24	1464,30
301,46	1456,11
301,67	1490,92
301,88	1417,19
302,09	1521,64
302,31	1390,57
302,52	1398,76
302,73	1538,02
302,94	1439,72
303,15	1427,43
303,37	1374,19
303,58	1464,30
303,79	1497,07
304,00	1546,22
304,22	1456,11
304,43	1538,02
304,64	1480,68
304,85	1437,67
305,06	1562,60
305,28	1472,49
305,49	1554,41
305,70	1480,68
305,91	1406,95
306,12	1505,26
306,34	1415,15
306,55	1406,95
306,76	1458,15
306,97	1619,94
307,18	1476,59
307,40	1488,87
307,61	1513,45
307,82	1474,54
308,03	1578,98
308,24	1540,07
308,46	1513,45
308,67	1574,89
308,88	1505,26
309,09	1638,38
309,30	1480,68
309,52	1499,11
309,73	1509,35
309,94	1402,86
310,15	1533,93
310,36	1490,92
310,57	1513,45
310,79	1538,02
311,00	1490,92
311,21	1433,58
311,42	1529,83
311,63	1566,70
311,85	1523,69
312,06	1490,92
312,27	1529,83
312,48	1550,31
312,69	1460,20
312,90	1538,02
313,12	1480,68
313,33	1505,26
313,54	1562,60
313,75	1443,82
313,96	1556,46
314,17	1474,54
314,39	1447,91
314,60	1513,45
314,81	1611,75
315,02	1370,09
315,23	1431,53
315,44	1499,11
315,65	1513,45
315,87	1521,64
316,08	1464,30
316,29	1499,11
316,50	1456,11
316,71	1525,74
316,92	1472,49
317,14	1480,68
317,35	1435,63
317,56	1558,50
317,77	1578,98
317,98	1439,72
318,19	1613,80
318,40	1458,15
318,62	1578,98
318,83	1484,78
319,04	1529,83
319,25	1490,92
319,46	1556,46
319,67	1488,87
319,88	1529,83
320,09	1550,31
320,31	1521,64
320,52	1505,26
320,73	1554,41
320,94	1415,15
321,15	1507,30
321,36	1529,83
321,57	1490,92
321,78	1529,83
322,00	1492,97
322,21	1480,68
322,42	1429,48
322,63	1603,56
322,84	1349,61
323,05	1603,56
323,26	1419,24
323,47	1492,97
323,69	1484,78
323,90	1517,54
324,11	1439,72
324,32	1501,16
324,53	1492,97
324,74	1546,22
324,95	1488,87
325,16	1513,45
325,37	1458,15
325,59	1472,49
325,80	1529,83
326,01	1548,26
326,22	1605,61
326,43	1525,74
326,64	1521,64
326,85	1531,88
327,06	1447,91
327,27	1513,45
327,48	1591,27
327,69	1583,08
327,91	1456,11
328,12	1480,68
328,33	1466,35
328,54	1400,81
328,75	1554,41
328,96	1589,22
329,17	1521,64
329,38	1560,55
329,59	1484,78
329,80	1857,51
330,01	1564,65
330,23	1574,89
330,44	1513,45
330,65	1521,64
330,86	1548,26
331,07	1415,15
331,28	1492,97
331,49	1456,11
331,70	1521,64
331,91	1423,34
332,12	1529,83
332,33	1546,22
332,54	1554,41
332,75	1525,74
332,96	1419,24
333,17	1505,26
333,39	1564,65
333,60	1505,26
333,81	1521,64
334,02	1423,34
334,23	1505,26
334,44	1415,15
334,65	1464,30
334,86	1447,91
335,07	1531,88
335,28	1492,97
335,49	1525,74
335,70	1529,83
335,91	1490,92
336,12	1466,35
336,33	1531,88
336,54	1466,35
336,75	1472,49
336,96	1538,02
337,17	1572,84
337,39	1423,34
337,60	1513,45
337,81	1548,26
338,02	1472,49
338,23	1509,35
338,44	1456,11
338,65	1445,87
338,86	1447,91
339,07	1546,22
339,28	1476,59
339,49	1621,99
339,70	1501,16
339,91	1505,26
340,12	1531,88
340,33	1452,01
340,54	1499,11
340,75	1550,31
340,96	1464,30
341,17	1538,02
341,38	1460,20
341,59	1554,41
341,80	1564,65
342,01	1474,54
342,22	1449,96
342,43	1452,01
342,64	1562,60
342,85	1581,03
343,06	1529,83
343,27	1472,49
343,48	1601,51
343,69	1419,24
343,90	1478,63
344,11	1521,64
344,32	1511,40
344,53	1546,22
344,74	1554,41
344,95	1415,15
345,16	1476,59
345,37	1529,83
345,58	1562,60
345,79	1480,68
346,00	1546,22
346,21	1398,76
346,42	1456,11
346,63	1525,74
346,84	1562,60
347,05	1466,35
347,26	1472,49
347,47	1435,63
347,68	1542,12
347,89	1497,07
348,10	1548,26
348,31	1546,22
348,52	1374,19
348,73	1558,50
348,94	1464,30
349,15	1607,66
349,36	1456,11
349,57	1419,24
349,78	1480,68
349,99	1449,96
350,20	1605,61
350,41	1464,30
350,62	1439,72
350,83	1472,49
351,04	1435,63
351,25	1527,78
351,46	1554,41
351,67	1474,54
351,88	1476,59
352,09	1468,39
352,30	1572,84
352,50	1570,79
352,71	1439,72
352,92	1449,96
353,13	1449,96
353,34	1460,20
353,55	1540,07
353,76	1431,53
353,97	1578,98
354,18	1587,18
354,39	1562,60
354,60	1613,80
354,81	1513,45
355,02	1587,18
355,23	1515,50
355,44	1472,49
355,65	1449,96
355,86	1505,26
356,07	1554,41
356,28	1578,98
356,48	1538,02
356,69	1499,11
356,90	1507,30
357,11	1515,50
357,32	1497,07
357,53	1472,49
357,74	1619,94
357,95	1554,41
358,16	1460,20
358,37	1439,72
358,58	1439,72
358,79	1427,43
359,00	1480,68
359,21	1402,86
359,41	1605,61
359,62	1538,02
359,83	1542,12
360,04	1497,07
360,25	1484,78
360,46	1497,07
360,67	1505,26
360,88	1433,58
361,09	1542,12
361,30	1546,22
361,51	1482,73
361,72	1464,30
361,92	1595,37
362,13	1515,50
362,34	1550,31
362,55	1474,54
362,76	1423,34
362,97	1533,93
363,18	1507,30
363,39	1556,46
363,60	1529,83
363,81	1431,53
364,01	1546,22
364,22	1603,56
364,43	1505,26
364,64	1460,20
364,85	1447,91
365,06	1523,69
365,27	1509,35
365,48	1505,26
365,69	1523,69
365,89	1445,87
366,10	1505,26
366,31	1501,16
366,52	1562,60
366,73	1587,18
366,94	1652,71
367,15	1472,49
367,36	1546,22
367,57	1636,33
367,77	1587,18
367,98	1562,60
368,19	1513,45
368,40	1509,35
368,61	1521,64
368,82	1488,87
369,03	1542,12
369,23	1662,95
369,44	1456,11
369,65	1431,53
369,86	1464,30
370,07	1480,68
370,28	1529,83
370,49	1533,93
370,70	1546,22
370,90	1476,59
371,11	1472,49
371,32	1466,35
371,53	1572,84
371,74	1497,07
371,95	1513,45
372,16	1488,87
372,36	1513,45
372,57	1521,64
372,78	1468,39
372,99	1452,01
373,20	1423,34
373,41	1419,24
373,61	1497,07
373,82	1540,07
374,03	1497,07
374,24	1515,50
374,45	1554,41
374,66	1480,68
374,86	1605,61
375,07	1583,08
375,28	1638,38
375,49	1488,87
375,70	1505,26
375,91	1574,89
376,11	1564,65
376,32	1525,74
376,53	1505,26
376,74	1523,69
376,95	1957,86
377,16	1540,07
377,36	1490,92
377,57	1499,11
377,78	1507,30
377,99	1542,12
378,20	1538,02
378,40	1578,98
378,61	1611,75
378,82	1476,59
379,03	1554,41
379,24	1613,80
379,45	1427,43
379,65	1449,96
379,86	1464,30
380,07	1466,35
380,28	1529,83
380,49	1562,60
380,69	1595,37
380,90	1644,52
381,11	1505,26
381,32	1488,87
381,53	1617,90
381,73	1523,69
381,94	1546,22
382,15	1439,72
382,36	1464,30
382,57	1574,89
382,77	1474,54
382,98	1456,11
383,19	1497,07
383,40	1587,18
383,60	1581,03
383,81	1564,65
384,02	1574,89
384,23	1501,16
384,44	1441,77
384,64	1540,07
384,85	1595,37
385,06	1521,64
385,27	1507,30
385,48	1488,87
385,68	1466,35
385,89	1492,97
386,10	1521,64
386,31	1476,59
386,51	1572,84
386,72	1546,22
386,93	1521,64
387,14	1583,08
387,34	1499,11
387,55	1499,11
387,76	1578,98
387,97	1509,35
388,17	1548,26
388,38	1521,64
388,59	1497,07
388,80	1558,50
389,01	1615,85
389,21	1578,98
389,42	1574,89
389,63	1521,64
389,84	1515,50
390,04	1624,04
390,25	1531,88
390,46	1521,64
390,67	1417,19
390,87	1529,83
391,08	1546,22
391,29	1472,49
391,49	1456,11
391,70	1447,91
391,91	1513,45
392,12	1423,34
392,32	1501,16
392,53	1447,91
392,74	1490,92
392,95	1484,78
393,15	1529,83
393,36	1562,60
393,57	1505,26
393,78	1591,27
393,98	1538,02
394,19	1521,64
394,40	1558,50
394,60	1529,83
394,81	1505,26
395,02	1345,52
395,23	1497,07
395,43	1484,78
395,64	1492,97
395,85	1419,24
396,06	1474,54
396,26	1517,54
396,47	1538,02
396,68	1513,45
396,88	1632,23
397,09	1673,19
397,30	1712,10
397,50	1765,35
397,71	1669,09
397,92	1718,25
398,13	1695,72
398,33	1476,59
398,54	1562,60
398,75	1497,07
398,95	1619,94
399,16	1538,02
399,37	1425,39
399,57	1523,69
399,78	1587,18
399,99	1406,95
400,20	1669,09
400,40	1546,22
400,61	1499,11
400,82	1425,39
401,02	1488,87
401,23	1564,65
401,44	1488,87
401,64	1492,97
401,85	1538,02
402,06	1525,74
402,26	1562,60
402,47	1505,26
402,68	1660,90
402,88	1480,68
403,09	1595,37
403,30	1423,34
403,50	1415,15
403,71	1628,14
403,92	1447,91
404,12	1472,49
404,33	1540,07
404,54	1521,64
404,74	1562,60
404,95	1538,02
405,16	1521,64
405,36	1521,64
405,57	1505,26
405,78	1513,45
405,98	1417,19
406,19	1486,83
406,40	1542,12
406,60	1570,79
406,81	1439,72
407,02	1515,50
407,22	1499,11
407,43	1417,19
407,64	1480,68
407,84	1423,34
408,05	1521,64
408,26	1419,24
408,46	1572,84
408,67	1593,32
408,87	1476,59
409,08	1505,26
409,29	1564,65
409,49	1521,64
409,70	1714,15
409,91	1849,32
410,11	2013,15
410,32	2267,10
410,53	2209,76
410,73	2316,25
410,94	2220,00
411,14	2105,31
411,35	1984,48
411,56	1890,28
411,76	1820,64
411,97	1677,29
412,18	1578,98
412,38	1441,77
412,59	1523,69
412,79	1406,95
413,00	1507,30
413,21	1513,45
413,41	1466,35
413,62	1423,34
413,82	1499,11
414,03	1566,70
414,24	1554,41
414,44	1419,24
414,65	1554,41
414,86	1484,78
415,06	1578,98
415,27	1566,70
415,47	1515,50
415,68	1480,68
415,89	1472,49
416,09	1509,35
416,30	1480,68
416,50	1495,02
416,71	1621,99
416,92	1400,81
417,12	1490,92
417,33	1492,97
417,53	1439,72
417,74	1482,73
417,94	1538,02
418,15	1566,70
418,36	1538,02
418,56	1562,60
418,77	1474,54
418,97	1570,79
419,18	1531,88
419,39	1447,91
419,59	1538,02
419,80	1492,97
420,00	1439,72
420,21	1464,30
420,41	1497,07
420,62	1581,03
420,83	1521,64
421,03	1572,84
421,24	1583,08
421,44	1447,91
421,65	1531,88
421,85	1554,41
422,06	1439,72
422,27	1472,49
422,47	1482,73
422,68	1460,20
422,88	1591,27
423,09	1441,77
423,29	1607,66
423,50	1548,26
423,70	1505,26
423,91	1533,93
424,12	1466,35
424,32	1474,54
424,53	1472,49
424,73	1562,60
424,94	1464,30
425,14	1525,74
425,35	1564,65
425,55	1521,64
425,76	1513,45
425,96	1529,83
426,17	1456,11
426,37	1497,07
426,58	1515,50
426,79	1558,50
426,99	1562,60
427,20	1554,41
427,40	1540,07
427,61	1456,11
427,81	1456,11
428,02	1538,02
428,22	1406,95
428,43	1533,93
428,63	1456,11
428,84	1509,35
429,04	1441,77
429,25	1538,02
429,45	1556,46
429,66	1533,93
429,86	1462,25
430,07	1542,12
430,27	1427,43
430,48	1648,61
430,68	1497,07
430,89	1540,07
431,09	1531,88
431,30	1402,86
431,50	1538,02
431,71	1615,85
431,91	1439,72
432,12	1558,50
432,32	1595,37
432,53	1546,22
432,73	1525,74
432,94	1564,65
433,14	1619,94
433,35	1652,71
433,55	2050,02
433,76	2897,88
433,96	4159,42
434,17	4925,36
434,37	5445,55
434,58	5322,67
434,78	5179,31
434,99	4511,68
435,19	3782,60
435,40	3295,18
435,60	2873,30
435,81	2539,48
436,01	2064,35
436,22	1925,09
436,42	1646,57
436,63	1587,18
436,83	1562,60
437,04	1554,41
437,24	1507,30
437,45	1499,11
437,65	1490,92
437,86	1505,26
438,06	1540,07
438,26	1578,98
438,47	1441,77
438,67	1490,92
438,88	1523,69
439,08	1474,54
439,29	1554,41
439,49	1513,45
439,70	1587,18
439,90	1490,92
440,11	1513,45
440,31	1603,56
440,52	1546,22
440,72	1523,69
440,92	1472,49
441,13	1484,78
441,33	1566,70
441,54	1578,98
441,74	1447,91
441,95	1505,26
442,15	1665,00
442,36	1591,27
442,56	1480,68
442,76	1521,64
442,97	1415,15
443,17	1488,87
443,38	1513,45
443,58	1497,07
443,79	1456,11
443,99	1468,39
444,19	1570,79
444,40	1431,53
444,60	1492,97
444,81	1423,34
445,01	1482,73
445,22	1470,44
445,42	1447,91
445,62	1525,74
445,83	1523,69
446,03	1636,33
446,24	1554,41
446,44	1540,07
446,64	1548,26
446,85	1415,15
447,05	1523,69
447,26	1447,91
447,46	1472,49
447,67	1441,77
447,87	1447,91
448,07	1564,65
448,28	1454,06
448,48	1521,64
448,69	1480,68
448,89	1488,87
449,09	1523,69
449,30	1466,35
449,50	1466,35
449,71	1449,96
449,91	1538,02
450,11	1456,11
450,32	1439,72
450,52	1427,43
450,72	1458,15
450,93	1554,41
451,13	1515,50
451,34	1538,02
451,54	1466,35
451,74	1460,20
451,95	1505,26
452,15	1472,49
452,36	1488,87
452,56	1540,07
452,76	1497,07
452,97	1415,15
453,17	1538,02
453,37	1458,15
453,58	1499,11
453,78	1423,34
453,98	1538,02
454,19	1513,45
454,39	1415,15
454,60	1464,30
454,80	1540,07
455,00	1515,50
455,21	1413,10
455,41	1548,26
455,61	1507,30
455,82	1482,73
456,02	1447,91
456,22	1546,22
456,43	1427,43
456,63	1531,88
456,84	1488,87
457,04	1521,64
457,24	1492,97
457,45	1497,07
457,65	1570,79
457,85	1415,15
458,06	1466,35
458,26	1468,39
458,46	1513,45
458,67	1466,35
458,87	1619,94
459,07	1613,80
459,28	1578,98
459,48	1513,45
459,68	1456,11
459,89	1411,05
460,09	1482,73
460,29	1581,03
460,50	1366,00
460,70	1468,39
460,90	1562,60
461,11	1456,11
461,31	1501,16
461,51	1538,02
461,72	1492,97
461,92	1538,02
462,12	1603,56
462,32	1581,03
462,53	1462,25
462,73	1966,05
462,93	1431,53
463,14	1626,09
463,34	1474,54
463,54	1546,22
463,75	1605,61
463,95	1507,30
464,15	1677,29
464,36	1529,83
464,56	1613,80
464,76	1415,15
464,96	1578,98
465,17	1439,72
465,37	1456,11
465,57	1447,91
465,78	1517,54
465,98	1425,39
466,18	1482,73
466,39	1474,54
466,59	1587,18
466,79	1466,35
466,99	1431,53
467,20	1462,25
467,40	1554,41
467,60	1406,95
467,81	1476,59
468,01	1578,98
468,21	1447,91
468,41	1486,83
468,62	1578,98
468,82	1480,68
469,02	1482,73
469,22	1478,63
469,43	1488,87
469,63	1531,88
469,83	1497,07
470,04	1572,84
470,24	1578,98
470,44	1492,97
470,64	1497,07
470,85	1441,77
471,05	1531,88
471,25	1546,22
471,45	1433,58
471,66	1542,12
471,86	1447,91
472,06	1488,87
472,26	1591,27
472,47	1570,79
472,67	1546,22
472,87	1525,74
473,07	1513,45
473,28	1433,58
473,48	1527,78
473,68	1556,46
473,88	1509,35
474,09	1517,54
474,29	1458,15
474,49	1597,42
474,69	1484,78
474,90	1468,39
475,10	1525,74
475,30	1554,41
475,50	1507,30
475,70	1472,49
475,91	1554,41
476,11	1484,78
476,31	1669,09
476,51	1570,79
476,72	1529,83
476,92	1417,19
477,12	1472,49
477,32	1480,68
477,53	1505,26
477,73	1517,54
477,93	1523,69
478,13	1472,49
478,33	1529,83
478,54	1505,26
478,74	1603,56
478,94	1513,45
479,14	1472,49
479,34	1613,80
479,55	1589,22
479,75	1558,50
479,95	1546,22
480,15	1562,60
480,35	1654,76
480,56	1589,22
480,76	1630,18
480,96	1583,08
481,16	1640,42
481,36	1581,03
481,57	1513,45
481,77	1566,70
481,97	1648,61
482,17	1529,83
482,37	1578,98
482,58	1562,60
482,78	1562,60
482,98	1611,75
483,18	1603,56
483,38	1611,75
483,58	1572,84
483,79	1603,56
483,99	1603,56
484,19	1734,63
484,39	1636,33
484,59	1759,21
484,80	1767,40
485,00	1785,83
485,20	1982,43
485,40	3053,52
485,60	9090,93
485,80	21814,96
486,01	36128,22
486,21	46091,58
486,41	54430,91
486,61	56302,76
486,81	50197,76
487,01	41868,67
487,22	34803,18
487,42	28706,38
487,62	23207,58
487,82	17915,63
488,02	13180,73
488,22	9637,74
488,42	6834,07
488,63	4675,51
488,83	3213,26
489,03	2381,79
489,23	2115,55
489,43	1873,89
489,63	1873,89
489,83	1720,29
490,04	1726,44
490,24	1644,52
490,44	1673,19
490,64	1587,18
490,84	1542,12
491,04	1736,68
491,24	1578,98
491,44	1525,74
491,65	1587,18
491,85	1497,07
492,05	1587,18
492,25	1546,22
492,45	1554,41
492,65	1548,26
492,85	1636,33
493,05	1628,14
493,26	1538,02
493,46	1548,26
493,66	1656,81
493,86	1529,83
494,06	1538,02
494,26	1619,94
494,46	1578,98
494,66	1546,22
494,86	1464,30
495,07	1505,26
495,27	1490,92
495,47	1482,73
495,67	1482,73
495,87	1515,50
496,07	1474,54
496,27	1521,64
496,47	1546,22
496,67	1540,07
496,87	1499,11
497,08	1535,98
497,28	1648,61
497,48	1505,26
497,68	1605,61
497,88	1497,07
498,08	1482,73
498,28	1558,50
498,48	1472,49
498,68	1482,73
498,88	1513,45
499,08	1554,41
499,29	1587,18
499,49	1497,07
499,69	1447,91
499,89	1562,60
500,09	1499,11
500,29	1546,22
500,49	1550,31
500,69	1615,85
500,89	1505,26
501,09	1505,26
501,29	1562,60
501,49	1507,30
501,69	1499,11
501,89	1529,83
502,09	1572,84
502,30	1556,46
502,50	1540,07
502,70	1529,83
502,90	1531,88
503,10	1460,20
503,30	1488,87
503,50	1523,69
503,70	1515,50
503,90	1507,30
504,10	1460,20
504,30	1492,97
504,50	1486,83
504,70	1480,68
504,90	1484,78
505,10	1505,26
505,30	1525,74
505,50	1529,83
505,70	1484,78
505,90	1441,77
506,10	1531,88
506,30	1546,22
506,50	1570,79
506,70	1517,54
506,90	1531,88
507,11	1505,26
507,31	1460,20
507,51	1492,97
507,71	1515,50
507,91	1452,01
508,11	1572,84
508,31	1439,72
508,51	1474,54
508,71	1554,41
508,91	1501,16
509,11	1464,30
509,31	1538,02
509,51	1449,96
509,71	1521,64
509,91	1517,54
510,11	1515,50
510,31	1574,89
510,51	1578,98
510,71	1460,20
510,91	1464,30
511,11	1439,72
511,31	1581,03
511,51	1492,97
511,71	1443,82
511,91	1515,50
512,11	1492,97
512,31	1464,30
512,51	1513,45
512,71	1505,26
512,91	1488,87
513,11	1488,87
513,31	1472,49
513,51	1492,97
513,71	1480,68
513,91	1460,20
514,11	1546,22
514,31	1519,59
514,51	1587,18
514,71	1468,39
514,90	1499,11
515,10	1490,92
515,30	1449,96
515,50	1488,87
515,70	1546,22
515,90	1488,87
516,10	1497,07
516,30	1357,80
516,50	1497,07
516,70	1490,92
516,90	1415,15
517,10	1400,81
517,30	1554,41
517,50	1447,91
517,70	1400,81
517,90	1490,92
518,10	1499,11
518,30	1583,08
518,50	1417,19
518,70	1441,77
518,90	1452,01
519,10	1517,54
519,30	1531,88
519,50	1521,64
519,69	1529,83
519,89	1507,30
520,09	1466,35
520,29	1476,59
520,49	1513,45
520,69	1509,35
520,89	1423,34
521,09	1544,17
521,29	1804,26
521,49	1499,11
521,69	1529,83
521,89	1492,97
522,09	1456,11
522,29	1507,30
522,48	1556,46
522,68	1480,68
522,88	1488,87
523,08	1480,68
523,28	1556,46
523,48	1570,79
523,68	1423,34
523,88	1566,70
524,08	1513,45
524,28	1492,97
524,48	1515,50
524,68	1513,45
524,87	1482,73
525,07	1529,83
525,27	1474,54
525,47	1492,97
525,67	1521,64
525,87	1513,45
526,07	1472,49
526,27	1460,20
526,47	1456,11
526,67	1492,97
526,86	1419,24
527,06	1546,22
527,26	1497,07
527,46	1587,18
527,66	1542,12
527,86	1460,20
528,06	1456,11
528,26	1607,66
528,46	1460,20
528,65	1476,59
528,85	1441,77
529,05	1466,35
529,25	1482,73
529,45	1499,11
529,65	1497,07
529,85	1515,50
530,05	1456,11
530,24	1562,60
530,44	1490,92
530,64	1587,18
530,84	1540,07
531,04	1447,91
531,24	1538,02
531,44	1423,34
531,63	1482,73
531,83	1538,02
532,03	1515,50
532,23	1562,60
532,43	1597,42
532,63	1501,16
532,83	1382,38
533,02	1507,30
533,22	1480,68
533,42	1415,15
533,62	1513,45
533,82	1466,35
534,02	1472,49
534,22	1482,73
534,41	1447,91
534,61	1488,87
534,81	1572,84
535,01	1533,93
535,21	1540,07
535,41	1474,54
535,60	1431,53
535,80	1515,50
536,00	1484,78
536,20	1456,11
536,40	1482,73
536,60	1513,45
536,79	1564,65
536,99	1431,53
537,19	1574,89
537,39	1564,65
537,59	1546,22
537,78	1415,15
537,98	1490,92
538,18	1456,11
538,38	1499,11
538,58	1382,38
538,77	1505,26
538,97	1392,62
539,17	1570,79
539,37	1474,54
539,57	1497,07
539,77	1523,69
539,96	1439,72
540,16	1554,41
540,36	1529,83
540,56	1458,15
540,76	1497,07
540,95	1554,41
541,15	1482,73
541,35	1488,87
541,55	1523,69
541,74	1400,81
541,94	1583,08
542,14	1517,54
542,34	1523,69
542,54	1474,54
542,73	1578,98
542,93	1529,83
543,13	1474,54
543,33	1460,20
543,53	1476,59
543,72	1578,98
543,92	1525,74
544,12	1456,11
544,32	1546,22
544,51	1529,83
544,71	1452,01
544,91	1511,40
545,11	1435,63
545,30	1540,07
545,50	1415,15
545,70	1499,11
545,90	1470,44
546,10	1472,49
546,29	1591,27
546,49	1556,46
546,69	1566,70
546,89	1474,54
547,08	1488,87
547,28	1431,53
547,48	1605,61
547,68	1558,50
547,87	1419,24
548,07	1476,59
548,27	1417,19
548,47	1390,57
548,66	1546,22
548,86	1488,87
549,06	1523,69
549,25	1466,35
549,45	1509,35
549,65	1538,02
549,85	1572,84
550,04	1548,26
550,24	1456,11
550,44	1456,11
550,64	1546,22
550,83	1456,11
551,03	1521,64
551,23	1466,35
551,43	1542,12
551,62	1464,30
551,82	1540,07
552,02	1525,74
552,21	1398,76
552,41	1548,26
552,61	1562,60
552,81	1517,54
553,00	1538,02
553,20	1404,91
553,40	1538,02
553,59	1505,26
553,79	1501,16
553,99	1538,02
554,18	1556,46
554,38	1431,53
554,58	1529,83
554,78	1562,60
554,97	1456,11
555,17	1447,91
555,37	1529,83
555,56	1497,07
555,76	1474,54
555,96	1521,64
556,15	1464,30
556,35	1447,91
556,55	1531,88
556,74	1433,58
556,94	1546,22
557,14	1449,96
557,34	1431,53
557,53	1597,42
557,73	1456,11
557,93	1415,15
558,12	1472,49
558,32	1447,91
558,52	1478,63
558,71	1466,35
558,91	1472,49
559,11	1523,69
559,30	1492,97
559,50	1468,39
559,70	1441,77
559,89	1495,02
560,09	1583,08
560,29	1462,25
560,48	1439,72
560,68	1476,59
560,88	1546,22
561,07	1433,58
561,27	1415,15
561,46	1581,03
561,66	1558,50
561,86	1413,10
562,05	1490,92
562,25	1411,05
562,45	1523,69
562,64	1417,19
562,84	1521,64
563,04	1554,41
563,23	1523,69
563,43	1476,59
563,63	1542,12
563,82	1595,37
564,02	1595,37
564,21	1409,00
564,41	1497,07
564,61	1529,83
564,80	1476,59
565,00	1497,07
565,20	1505,26
565,39	1460,20
565,59	1507,30
565,78	1488,87
565,98	1652,71
566,18	1433,58
566,37	1578,98
566,57	1449,96
566,77	1533,93
566,96	1480,68
567,16	1501,16
567,35	1515,50
567,55	1578,98
567,75	1497,07
567,94	1513,45
568,14	1564,65
568,33	1572,84
568,53	1578,98
568,73	1595,37
568,92	1449,96
569,12	1550,31
569,31	1521,64
569,51	1525,74
569,71	1515,50
569,90	1513,45
570,10	1578,98
570,29	1677,29
570,49	1542,12
570,69	1578,98
570,88	1525,74
571,08	1447,91
571,27	1521,64
571,47	1644,52
571,66	1513,45
571,86	1435,63
572,06	1578,98
572,25	1435,63
572,45	1538,02
572,64	1488,87
572,84	1531,88
573,03	1566,70
573,23	1595,37
573,43	1538,02
573,62	1587,18
573,82	1578,98
574,01	1505,26
574,21	1521,64
574,40	1538,02
574,60	1542,12
574,79	1480,68
574,99	1638,38
575,19	1533,93
575,38	1628,14
575,58	1599,46
575,77	1578,98
575,97	1525,74
576,16	1578,98
576,36	1583,08
576,55	1611,75
576,75	1570,79
576,94	1581,03
577,14	1521,64
577,34	1611,75
577,53	1554,41
577,73	1566,70
577,92	1521,64
578,12	1611,75
578,31	1513,45
578,51	1611,75
578,70	1613,80
578,90	1693,67
579,09	1652,71
579,29	1605,61
579,48	1599,46
579,68	1578,98
579,87	1538,02
580,07	1611,75
580,26	1509,35
580,46	1529,83
580,65	1619,94
580,85	1556,46
581,04	1660,90
581,24	1597,42
581,43	1738,73
581,63	1693,67
581,82	1710,05
582,02	1660,90
582,21	1693,67
582,41	1632,23
582,60	1566,70
582,80	1599,46
582,99	1660,90
583,19	1548,26
583,38	1611,75
583,58	1578,98
583,77	1689,57
583,97	1603,56
584,16	1693,67
584,36	1554,41
584,55	1556,46
584,75	1458,15
584,94	1531,88
585,14	1611,75
585,33	1529,83
585,53	1656,81
585,72	1521,64
585,92	1574,89
586,11	1505,26
586,31	1630,18
586,50	1681,38
586,70	1595,37
586,89	1513,45
587,09	1587,18
587,28	1476,59
587,47	1570,79
587,67	1521,64
587,86	1603,56
588,06	1488,87
588,25	1587,18
588,45	1546,22
588,64	1591,27
588,84	1662,95
589,03	1581,03
589,23	1572,84
589,42	1630,18
589,61	1554,41
589,81	1660,90
590,00	1589,22
590,20	1572,84
590,39	1433,58
590,59	1669,09
590,78	1554,41
590,98	1466,35
591,17	1505,26
591,36	1521,64
591,56	1497,07
591,75	1619,94
591,95	1538,02
592,14	1548,26
592,34	1562,60
592,53	1589,22
592,72	1589,22
592,92	1644,52
593,11	1474,54
593,31	1628,14
593,50	1603,56
593,69	1652,71
593,89	1556,46
594,08	1638,38
594,28	1589,22
594,47	1578,98
594,67	1632,23
594,86	1597,42
595,05	1570,79
595,25	1677,29
595,44	1546,22
595,64	1607,66
595,83	1619,94
596,02	1572,84
596,22	1538,02
596,41	1581,03
596,61	1538,02
596,80	1474,54
596,99	1439,72
597,19	1603,56
597,38	1513,45
597,58	1685,48
597,77	1572,84
597,96	1548,26
598,16	1599,46
598,35	1644,52
598,54	1562,60
598,74	1497,07
598,93	1564,65
599,13	1540,07
599,32	1521,64
599,51	1406,95
599,71	1529,83
599,90	1613,80
600,09	1447,91
600,29	1531,88
600,48	1529,83
600,68	1562,60
600,87	1595,37
601,06	1660,90
601,26	1449,96
601,45	1554,41
601,64	1538,02
601,84	1593,32
602,03	1621,99
602,22	1595,37
602,42	1578,98
602,61	1501,16
602,80	1533,93
603,00	1603,56
603,19	1554,41
603,38	1685,48
603,58	1615,85
603,77	1685,48
603,96	1509,35
604,16	1621,99
604,35	1554,41
604,54	1624,04
604,74	1533,93
604,93	1554,41
605,12	1497,07
605,32	1515,50
605,51	1456,11
605,70	1499,11
605,90	1542,12
606,09	1578,98
606,28	1464,30
606,48	1597,42
606,67	1632,23
606,86	1572,84
607,06	1449,96
607,25	1533,93
607,44	1564,65
607,64	1546,22
607,83	1562,60
608,02	1488,87
608,22	1566,70
608,41	1546,22
608,60	1529,83
608,79	1540,07
608,99	1578,98
609,18	1628,14
609,37	1484,78
609,57	1621,99
609,76	1488,87
609,95	1499,11
610,15	1574,89
610,34	1556,46
610,53	1531,88
610,72	1597,42
610,92	1523,69
611,11	1509,35
611,30	1587,18
611,50	1572,84
611,69	1538,02
611,88	1566,70
612,07	1613,80
612,27	1456,11
612,46	1464,30
612,65	1478,63
612,84	1505,26
613,04	1488,87
613,23	1562,60
613,42	1515,50
613,62	1615,85
613,81	1597,42
614,00	1628,14
614,19	1533,93
614,39	1499,11
614,58	1595,37
614,77	1554,41
614,96	1652,71
615,16	1562,60
615,35	1603,56
615,54	1585,13
615,73	1497,07
615,93	1523,69
616,12	1685,48
616,31	1517,54
616,50	1546,22
616,70	1628,14
616,89	1597,42
617,08	1499,11
617,27	1570,79
617,47	1619,94
617,66	1554,41
617,85	1570,79
618,04	1574,89
618,23	1460,20
618,43	1464,30
618,62	1439,72
618,81	1660,90
619,00	1558,50
619,20	1546,22
619,39	1472,49
619,58	1574,89
619,77	1505,26
619,96	1554,41
620,16	1562,60
620,35	1570,79
620,54	1472,49
620,73	1517,54
620,93	1497,07
621,12	1546,22
621,31	1390,57
621,50	1638,38
621,69	1447,91
621,89	1474,54
622,08	1409,00
622,27	1423,34
622,46	1660,90
622,65	1456,11
622,85	1488,87
623,04	1587,18
623,23	1476,59
623,42	1433,58
623,61	1521,64
623,81	1566,70
624,00	1548,26
624,19	1546,22
624,38	1540,07
624,57	1578,98
624,76	1554,41
624,96	1480,68
625,15	1468,39
625,34	1521,64
625,53	1591,27
625,72	1531,88
625,91	1509,35
626,11	1505,26
626,30	1447,91
626,49	1484,78
626,68	1501,16
626,87	1415,15
627,06	1521,64
627,26	1484,78
627,45	1562,60
627,64	1562,60
627,83	1546,22
628,02	1505,26
628,21	1587,18
628,41	1540,07
628,60	1468,39
628,79	1507,30
628,98	1521,64
629,17	1464,30
629,36	1603,56
629,55	1533,93
629,75	1488,87
629,94	1570,79
630,13	1556,46
630,32	1482,73
630,51	1583,08
630,70	1513,45
630,89	1513,45
631,09	1578,98
631,28	1538,02
631,47	1574,89
631,66	1538,02
631,85	1529,83
632,04	1435,63
632,23	1615,85
632,42	1578,98
632,62	1578,98
632,81	1540,07
633,00	1628,14
633,19	1546,22
633,38	1564,65
633,57	1570,79
633,76	1554,41
633,95	1525,74
634,14	1521,64
634,34	1605,61
634,53	1497,07
634,72	1566,70
634,91	1695,72
635,10	1554,41
635,29	1630,18
635,48	1662,95
635,67	1578,98
635,86	1531,88
636,05	1660,90
636,24	1619,94
636,44	1546,22
636,63	1566,70
636,82	1570,79
637,01	1689,57
637,20	1619,94
637,39	1624,04
637,58	1646,57
637,77	1529,83
637,96	1636,33
638,15	1587,18
638,34	1609,70
638,53	1587,18
638,73	1671,14
638,92	1607,66
639,11	1726,44
639,30	1638,38
639,49	1662,95
639,68	1583,08
639,87	1656,81
640,06	1554,41
640,25	1710,05
640,44	1712,10
640,63	1652,71
640,82	1660,90
641,01	1613,80
641,20	1751,01
641,39	1619,94
641,58	1572,84
641,77	1685,48
641,96	1648,61
642,16	1611,75
642,35	1669,09
642,54	1652,71
642,73	1529,83
642,92	1742,82
643,11	1728,49
643,30	1619,94
643,49	1546,22
643,68	1710,05
643,87	1636,33
644,06	1685,48
644,25	1583,08
644,44	1628,14
644,63	1669,09
644,82	1728,49
645,01	1636,33
645,20	1662,95
645,39	1660,90
645,58	1683,43
645,77	1759,21
645,96	1738,73
646,15	1693,67
646,34	1714,15
646,53	1660,90
646,72	1738,73
646,91	1693,67
647,10	1697,77
647,29	1660,90
647,48	1828,84
647,67	1644,52
647,86	1736,68
648,05	1759,21
648,24	1697,77
648,43	1832,93
648,62	1677,29
648,81	1794,02
649,00	1669,09
649,19	1894,37
649,38	1712,10
649,57	1800,16
649,76	1734,63
649,95	1841,12
650,14	1679,33
650,33	1695,72
650,52	1800,16
650,71	1755,11
650,90	1810,40
651,09	1898,47
651,28	1769,44
651,47	1808,36
651,66	1972,19
651,85	1980,39
652,04	2023,39
652,23	1966,05
652,42	2209,76
652,61	2144,22
652,80	2344,92
652,99	2136,03
653,17	2217,95
653,36	2201,57
653,55	2234,33
653,74	2267,10
653,93	2293,72
654,12	2381,79
654,31	2504,67
654,50	2545,63
654,69	2717,65
654,88	2971,60
655,07	3350,48
655,26	5234,61
655,45	14620,45
655,64	51487,98
655,83	65535,00
656,02	65535,00
656,21	65535,00
656,39	65535,00
656,58	65535,00
656,77	65535,00
656,96	65535,00
657,15	65535,00
657,34	65535,00
657,53	65535,00
657,72	65535,00
657,91	65535,00
658,10	65535,00
658,29	65535,00
658,48	65535,00
658,67	65535,00
658,85	65535,00
659,04	65535,00
659,23	65535,00
659,42	65535,00
659,61	65535,00
659,80	65535,00
659,99	65535,00
660,18	65535,00
660,37	65535,00
660,56	65535,00
660,74	65535,00
660,93	65535,00
661,12	65535,00
661,31	65535,00
661,50	65535,00
661,69	65535,00
661,88	65535,00
662,07	65535,00
662,26	65535,00
662,44	65535,00
662,63	65535,00
662,82	65535,00
663,01	65535,00
663,20	65535,00
663,39	65535,00
663,58	65535,00
663,77	65535,00
663,95	65535,00
664,14	65535,00
664,33	65535,00
664,52	65535,00
664,71	65535,00
664,90	65535,00
665,09	65535,00
665,27	65535,00
665,46	44305,76
665,65	29488,70
665,84	1849,32
666,03	1832,93
666,22	1759,21
666,41	1818,60
666,59	1632,23
666,78	1595,37
666,97	1554,41
667,16	1660,90
667,35	1701,86
667,54	1683,43
667,72	1662,95
667,91	1679,33
668,10	1605,61
668,29	1605,61
668,48	1685,48
668,67	1677,29
668,85	1581,03
669,04	1689,57
669,23	1660,90
669,42	1548,26
669,61	1603,56
669,80	1611,75
669,98	1587,18
670,17	1654,76
670,36	1562,60
670,55	1613,80
670,74	1583,08
670,92	1644,52
671,11	1521,64
671,30	1611,75
671,49	1619,94
671,68	1615,85
671,86	1548,26
672,05	1673,19
672,24	1642,47
672,43	1589,22
672,62	1595,37
672,80	1619,94
672,99	1703,91
673,18	1554,41
673,37	1503,21
673,56	1589,22
673,74	1587,18
673,93	1482,73
674,12	1650,66
674,31	1507,30
674,50	1529,83
674,68	1515,50
674,87	1619,94
675,06	1546,22
675,25	1501,16
675,43	1587,18
675,62	1538,02
675,81	1578,98
676,00	1572,84
676,19	1597,42
676,37	1488,87
676,56	1546,22
676,75	1562,60
676,94	1488,87
677,12	1613,80
677,31	1603,56
677,50	1546,22
677,69	1613,80
677,87	1511,40
678,06	1574,89
678,25	1406,95
678,44	1509,35
678,62	1480,68
678,81	1605,61
679,00	1578,98
679,19	1581,03
679,37	1525,74
679,56	1562,60
679,75	1581,03
679,94	1605,61
680,12	1554,41
680,31	1603,56
680,50	1570,79
680,68	1523,69
680,87	1499,11
681,06	1607,66
681,25	1607,66
681,43	1546,22
681,62	1533,93
681,81	1523,69
682,00	1488,87
682,18	1570,79
682,37	1523,69
682,56	1499,11
682,74	1515,50
682,93	1509,35
683,12	1492,97
683,31	1466,35
683,49	1497,07
683,68	1490,92
683,87	1505,26
684,05	1509,35
684,24	1499,11
684,43	1474,54
684,61	1535,98
684,80	1439,72
684,99	1513,45
685,18	1527,78
685,36	1521,64
685,55	1529,83
685,74	1474,54
685,92	1572,84
686,11	1488,87
686,30	1505,26
686,48	1548,26
686,67	1474,54
686,86	1460,20
687,04	1505,26
687,23	1447,91
687,42	1513,45
687,60	1488,87
687,79	1515,50
687,98	1513,45
688,16	1505,26
688,35	1513,45
688,54	1562,60
688,72	2021,35
688,91	1447,91
689,10	1472,49
689,28	1513,45
689,47	1587,18
689,66	1548,26
689,84	1464,30
690,03	1507,30
690,22	1521,64
690,40	1533,93
690,59	1603,56
690,78	1398,76
690,96	1439,72
691,15	1447,91
691,34	1452,01
691,52	1513,45
691,71	1484,78
691,89	1497,07
692,08	1398,76
692,27	1505,26
692,45	1464,30
692,64	1439,72
692,83	1472,49
693,01	1488,87
693,20	1452,01
693,38	1447,91
693,57	1439,72
693,76	1513,45
693,94	1542,12
694,13	1636,33
694,32	1400,81
694,50	1578,98
694,69	1447,91
694,87	1492,97
695,06	1488,87
695,25	1554,41
695,43	1595,37
695,62	1441,77
695,80	1513,45
695,99	1433,58
696,18	1456,11
696,36	1529,83
696,55	1546,22
696,73	1415,15
696,92	1411,05
697,11	1433,58
697,29	1554,41
697,48	1474,54
697,66	1595,37
697,85	1441,77
698,04	1484,78
698,22	1513,45
698,41	1476,59
698,59	1538,02
698,78	1398,76
698,96	1521,64
699,15	1456,11
699,34	1431,53
699,52	1449,96
699,71	1466,35
699,89	1564,65
700,08	1472,49
700,26	1482,73
700,45	1529,83
700,64	1462,25
700,82	1476,59
701,01	1427,43
701,19	1480,68
701,38	1529,83
701,56	1492,97
701,75	1558,50
701,93	1417,19
702,12	1400,81
702,31	1439,72
702,49	1492,97
702,68	1402,86
702,86	1411,05
703,05	1492,97
703,23	1538,02
703,42	1679,33
703,60	1484,78
703,79	1525,74
703,97	1415,15
704,16	1538,02
704,34	1488,87
704,53	1499,11
704,72	1472,49
704,90	1521,64
705,09	1460,20
705,27	1464,30
705,46	1517,54
705,64	1488,87
705,83	1480,68
706,01	1464,30
706,20	1464,30
706,38	1521,64
706,57	1472,49
706,75	1443,82
706,94	1513,45
707,12	1464,30
707,31	1472,49
707,49	1449,96
707,68	1505,26
707,86	1460,20
708,05	1550,31
708,23	1529,83
708,42	1531,88
708,60	1488,87
708,79	1480,68
708,97	1519,59
709,16	1538,02
709,34	1499,11
709,53	1507,30
709,71	1603,56
709,90	1513,45
710,08	1521,64
710,27	1466,35
710,45	1431,53
710,64	1433,58
710,82	1452,01
711,00	1759,21
711,19	1556,46
711,37	1433,58
711,56	1505,26
711,74	1529,83
711,93	1472,49
712,11	1452,01
712,30	1497,07
712,48	1501,16
712,67	1505,26
712,85	1431,53
713,04	1488,87
713,22	1546,22
713,40	1398,76
713,59	1488,87
713,77	1499,11
713,96	1456,11
714,14	1540,07
714,33	1546,22
714,51	1460,20
714,70	1456,11
714,88	1452,01
715,06	1433,58
715,25	1419,24
715,43	1538,02
715,62	1447,91
715,80	1472,49
715,99	1431,53
716,17	1398,76
716,35	1513,45
716,54	1480,68
716,72	1488,87
716,91	1441,77
717,09	1628,14
717,28	1423,34
717,46	1628,14
717,64	1505,26
717,83	1538,02
718,01	1406,95
718,20	1443,82
718,38	1466,35
718,56	1433,58
718,75	1554,41
718,93	1458,15
719,12	1449,96
719,30	1525,74
719,48	1398,76
719,67	1538,02
719,85	1482,73
720,04	1425,39
720,22	1447,91
720,40	1329,13
720,59	1482,73
720,77	1439,72
720,96	1484,78
721,14	1466,35
721,32	1433,58
721,51	1366,00
721,69	1538,02
721,87	1447,91
722,06	1529,83
722,24	1447,91
722,43	1423,34
722,61	1456,11
722,79	1464,30
722,98	1480,68
723,16	1523,69
723,34	1589,22
723,53	1447,91
723,71	1488,87
723,90	1583,08
724,08	1456,11
724,26	1447,91
724,45	1425,39
724,63	1472,49
724,81	1443,82
725,00	1482,73
725,18	1505,26
725,36	1468,39
725,55	1529,83
725,73	1472,49
725,91	1497,07
726,10	1439,72
726,28	1513,45
726,46	1456,11
726,65	1480,68
726,83	1458,15
727,01	1505,26
727,20	1523,69
727,38	1566,70
727,56	1449,96
727,75	1456,11
727,93	1456,11
728,11	1488,87
728,30	1439,72
728,48	1449,96
728,66	1464,30
728,85	1456,11
729,03	1476,59
729,21	1415,15
729,40	1531,88
729,58	1482,73
729,76	1433,58
729,94	1449,96
730,13	1462,25
730,31	1480,68
730,49	1419,24
730,68	1464,30
730,86	1531,88
731,04	1488,87
731,23	1488,87
731,41	1466,35
731,59	1386,47
731,77	1449,96
731,96	1488,87
732,14	1531,88
732,32	1517,54
732,51	1357,80
732,69	1394,67
732,87	1529,83
733,05	1521,64
733,24	1400,81
733,42	1546,22
733,60	1431,53
733,79	1521,64
733,97	1423,34
734,15	1441,77
734,33	1540,07
734,52	1472,49
734,70	1538,02
734,88	1548,26
735,06	1472,49
735,25	1482,73
735,43	1423,34
735,61	1431,53
735,79	1454,06
735,98	1456,11
736,16	1849,32
736,34	1458,15
736,52	1423,34
736,71	1509,35
736,89	1507,30
737,07	1423,34
737,25	1415,15
737,44	1431,53
737,62	1589,22
737,80	1480,68
737,98	1488,87
738,17	1452,01
738,35	1390,57
738,53	1509,35
738,71	1464,30
738,89	1521,64
739,08	1480,68
739,26	1488,87
739,44	1531,88
739,62	1521,64
739,81	1505,26
739,99	1497,07
740,17	1529,83
740,35	1478,63
740,53	1447,91
740,72	1497,07
740,90	1443,82
741,08	1456,11
741,26	1431,53
741,44	1456,11
741,63	1505,26
741,81	1636,33
741,99	1409,00
742,17	1388,52
742,35	1466,35
742,54	1394,67
742,72	1546,22
742,90	1441,77
743,08	1472,49
743,26	1423,34
743,45	1507,30
743,63	1464,30
743,81	1497,07
743,99	1480,68
744,17	1464,30
744,35	1497,07
744,54	1521,64
744,72	1556,46
744,90	1439,72
745,08	1452,01
745,26	1501,16
745,44	1400,81
745,63	1497,07
745,81	1480,68
745,99	1546,22
746,17	1497,07
746,35	1480,68
746,53	1466,35
746,72	1447,91
746,90	1464,30
747,08	1449,96
747,26	1439,72
747,44	1603,56
747,62	1613,80
747,81	1480,68
747,99	1390,57
748,17	1382,38
748,35	1458,15
748,53	1423,34
748,71	1488,87
748,89	1546,22
749,07	1595,37
749,26	1472,49
749,44	1464,30
749,62	1372,14
749,80	1452,01
749,98	1409,00
750,16	1464,30
750,34	1439,72
750,52	1441,77
750,71	1449,96
750,89	1509,35
751,07	1449,96
751,25	1398,76
751,43	1441,77
751,61	1513,45
751,79	1398,76
751,97	1456,11
752,15	1472,49
752,34	1474,54
752,52	1415,15
752,70	1488,87
752,88	1529,83
753,06	1390,57
753,24	1415,15
753,42	1431,53
753,60	1409,00
753,78	1472,49
753,96	1398,76
754,15	1490,92
754,33	1466,35
754,51	1464,30
754,69	1447,91
754,87	1572,84
755,05	1501,16
755,23	1492,97
755,41	1447,91
755,59	1497,07
755,77	1458,15
755,95	1409,00
756,13	1570,79
756,31	1392,62
756,50	1449,96
756,68	1431,53
756,86	1505,26
757,04	1419,24
757,22	1509,35
757,40	1476,59
757,58	1447,91
757,76	1456,11
757,94	1546,22
758,12	1591,27
758,30	1525,74
758,48	1435,63
758,66	1411,05
758,84	1529,83
759,02	1441,77
759,20	1484,78
759,38	1505,26
759,56	1349,61
759,74	1587,18
759,92	1406,95
760,10	1505,26
760,28	1474,54
760,47	1456,11
760,65	1525,74
760,83	1529,83
761,01	1406,95
761,19	1474,54
761,37	1456,11
761,55	1423,34
761,73	1390,57
761,91	1443,82
762,09	1472,49
762,27	1441,77
762,45	1468,39
762,63	1505,26
762,81	1521,64
762,99	1513,45
763,17	1499,11
763,35	1521,64
763,53	1435,63
763,71	1406,95
763,89	1812,45
764,07	1523,69
764,25	1578,98
764,43	1538,02
764,61	1499,11
764,79	1409,00
764,97	1423,34
765,15	1628,14
765,33	1484,78
765,51	1480,68
765,69	1480,68
765,87	1476,59
766,05	1480,68
766,23	1517,54
766,41	1503,21
766,58	1562,60
766,76	1521,64
766,94	1460,20
767,12	1546,22
767,30	1501,16
767,48	1380,33
767,66	1441,77
767,84	1490,92
768,02	1513,45
768,20	1540,07
768,38	1570,79
768,56	1480,68
768,74	1439,72
768,92	1464,30
769,10	1456,11
769,28	1439,72
769,46	1488,87
769,64	1501,16
769,82	1497,07
770,00	1538,02
770,18	1474,54
770,36	1570,79
770,53	1529,83
770,71	1456,11
770,89	1472,49
771,07	1544,17
771,25	1466,35
771,43	1476,59
771,61	1458,15
771,79	1402,86
771,97	1431,53
772,15	1515,50
772,33	1384,43
772,51	1476,59
772,69	1409,00
772,86	1443,82
773,04	1558,50
773,22	1509,35
773,40	1507,30
773,58	1431,53
773,76	1466,35
773,94	1349,61
774,12	1490,92
774,30	1398,76
774,48	1439,72
774,65	1386,47
774,83	1431,53
775,01	1574,89
775,19	1484,78
775,37	1398,76
775,55	1501,16
775,73	1497,07
775,91	1464,30
776,09	1523,69
776,26	1480,68
776,44	1482,73
776,62	1548,26
776,80	1597,42
776,98	1785,83
777,16	1980,39
777,34	2310,11
777,52	2435,03
777,69	2578,39
777,87	2572,25
778,05	2562,01
778,23	2357,21
778,41	2357,21
778,59	2086,88
778,77	1914,85
778,94	1812,45
779,12	1734,63
779,30	1662,95
779,48	1660,90
779,66	1677,29
779,84	1611,75
780,02	1546,22
780,19	1531,88
780,37	1533,93
780,55	1546,22
780,73	1490,92
780,91	1546,22
781,09	1523,69
781,26	1538,02
781,44	1556,46
781,62	1417,19
781,80	1427,43
781,98	1372,14
782,16	1390,57
782,33	1431,53
782,51	1554,41
782,69	1392,62
782,87	1474,54
783,05	1488,87
783,22	1669,09
783,40	1425,39
783,58	1452,01
783,76	1484,78
783,94	1488,87
784,12	1466,35
784,29	1583,08
784,47	1447,91
784,65	1464,30
784,83	1515,50
785,01	1505,26
785,18	1515,50
785,36	1374,19
785,54	1488,87
785,72	1501,16
785,89	1562,60
786,07	1404,91
786,25	1464,30
786,43	1466,35
786,61	1374,19
786,78	1419,24
786,96	1517,54
787,14	1505,26
787,32	1490,92
787,49	1507,30
787,67	1509,35
787,85	1427,43
788,03	1374,19
788,21	1548,26
788,38	1398,76
788,56	1402,86
788,74	1382,38
788,92	1484,78
789,09	1538,02
789,27	1449,96
789,45	1476,59
789,63	1327,08
789,80	1456,11
789,98	1396,71
790,16	1556,46
790,34	1402,86
790,51	1441,77
790,69	1441,77
790,87	1441,77
791,05	1398,76
791,22	1456,11
791,40	1423,34
791,58	1423,34
791,76	1505,26
791,93	1556,46
792,11	1478,63
792,29	1423,34
792,46	1476,59
792,64	1531,88
792,82	1505,26
793,00	1488,87
793,17	1392,62
793,35	1531,88
793,53	1509,35
793,70	1439,72
793,88	1394,67
794,06	1546,22
794,24	1482,73
794,41	1505,26
794,59	1513,45
794,77	1439,72
794,94	1505,26
795,12	1513,45
795,30	1392,62
795,47	1529,83
795,65	1400,81
795,83	1482,73
796,01	1488,87
796,18	1488,87
796,36	1482,73
796,54	1482,73
796,71	1578,98
796,89	1415,15
797,07	1476,59
797,24	1409,00
797,42	1472,49
797,60	1529,83
797,77	1523,69
797,95	1482,73
798,13	1497,07
798,30	1497,07
798,48	1406,95
798,66	1556,46
798,83	1513,45
799,01	1521,64
799,19	1468,39
799,36	1472,49
799,54	1449,96
799,72	1452,01
799,89	1484,78
800,07	1464,30
800,25	1333,23
800,42	1507,30
800,60	1523,69
800,78	1431,53
800,95	1431,53
801,13	1558,50
801,30	1423,34
801,48	1472,49
801,66	1488,87
801,83	1523,69
802,01	1406,95
802,19	1423,34
802,36	1394,67
802,54	1429,48
802,72	1480,68
802,89	1611,75
803,07	1417,19
803,24	1562,60
803,42	1523,69
803,60	1415,15
803,77	1423,34
803,95	1431,53
804,12	1398,76
804,30	1488,87
804,48	1417,19
804,65	1517,54
804,83	1462,25
805,01	1578,98
805,18	1464,30
805,36	1441,77
805,53	1427,43
805,71	1368,04
805,88	1452,01
806,06	1488,87
806,24	1433,58
806,41	1433,58
806,59	1435,63
806,76	1413,10
806,94	1398,76
807,12	1529,83
807,29	1490,92
807,47	1423,34
807,64	1538,02
807,82	1566,70
807,99	1433,58
808,17	1482,73
808,35	1533,93
808,52	1538,02
808,70	1439,72
808,87	1343,47
809,05	1480,68
809,22	1441,77
809,40	1386,47
809,58	1505,26
809,75	1310,70
809,93	1374,19
810,10	1402,86
810,28	1423,34
810,45	1406,95
810,63	1542,12
810,80	1423,34
810,98	1509,35
811,15	1488,87
811,33	1490,92
811,51	1431,53
811,68	1368,04
811,86	1456,11
812,03	1423,34
812,21	1394,67
812,38	1433,58
812,56	1488,87
812,73	1572,84
812,91	1460,20
813,08	1472,49
813,26	1447,91
813,43	1470,44
813,61	1482,73
813,78	1564,65
813,96	1476,59
814,13	1456,11
814,31	1431,53
814,48	1417,19
814,66	1366,00
814,83	1447,91
815,01	1480,68
815,18	1587,18
815,36	1415,15
815,53	1499,11
815,71	1427,43
815,88	1554,41
816,06	1454,06
816,23	1515,50
816,41	1368,04
816,58	1456,11
816,76	1652,71
816,93	1474,54
817,11	1538,02
817,28	1449,96
817,46	1447,91
817,63	1511,40
817,81	1538,02
817,98	1423,34
818,16	1433,58
818,33	1521,64
818,51	1431,53
818,68	1386,47
818,86	1546,22
819,03	1384,43
819,21	1480,68
819,38	1546,22
819,55	1449,96
819,73	1472,49
819,90	1382,38
820,08	1480,68
820,25	1513,45
820,43	1490,92
820,60	1458,15
820,78	1564,65
820,95	1449,96
821,12	1488,87
821,30	1468,39
821,47	1464,30
821,65	1458,15
821,82	1515,50
822,00	1402,86
822,17	1443,82
822,35	1472,49
822,52	1538,02
822,69	1497,07
822,87	1439,72
823,04	1419,24
823,22	1419,24
823,39	1431,53
823,56	1488,87
823,74	1423,34
823,91	1447,91
824,09	1441,77
824,26	1454,06
824,44	1398,76
824,61	1599,46
824,78	1460,20
824,96	1449,96
825,13	1505,26
825,31	1488,87
825,48	1505,26
825,65	1546,22
825,83	1490,92
826,00	1476,59
826,18	1425,39
826,35	1456,11
826,52	1521,64
826,70	1300,46
826,87	1464,30
827,04	1488,87
827,22	1390,57
827,39	1435,63
827,57	1546,22
827,74	1374,19
827,91	1339,37
828,09	1406,95
828,26	1417,19
828,43	1449,96
828,61	1488,87
828,78	1456,11
828,96	1611,75
829,13	1472,49
829,30	1439,72
829,48	1466,35
829,65	1439,72
829,82	1521,64
830,00	1415,15
830,17	1374,19
830,34	1513,45
830,52	1384,43
830,69	1423,34
830,86	1449,96
831,04	1423,34
831,21	1474,54
831,38	1452,01
831,56	1439,72
831,73	1425,39
831,90	1538,02
832,08	1406,95
832,25	1449,96
832,42	1384,43
832,60	1499,11
832,77	1400,81
832,94	1472,49
833,12	1415,15
833,29	1341,42
833,46	1441,77
833,64	1542,12
833,81	1488,87
833,98	1480,68
834,16	1447,91
834,33	1505,26
834,50	1529,83
834,67	1464,30
834,85	1431,53
835,02	1398,76
835,19	1538,02
835,37	1488,87
835,54	1472,49
835,71	1458,15
835,89	1427,43
836,06	1476,59
836,23	1366,00
836,40	1501,16
836,58	1513,45
836,75	1488,87
836,92	1472,49
837,10	1433,58
837,27	1447,91
837,44	1505,26
837,61	1492,97
837,79	1443,82
837,96	1456,11
838,13	1480,68
838,30	1507,30
838,48	1384,43
838,65	1439,72
838,82	1456,11
838,99	1472,49
839,17	1566,70
839,34	1415,15
839,51	1472,49
839,69	1351,66
839,86	1464,30
840,03	1546,22
840,20	1439,72
840,37	1505,26
840,55	1386,47
840,72	1449,96
840,89	1447,91
841,06	1497,07
841,24	1458,15
841,41	1433,58
841,58	1480,68
841,75	1456,11
841,93	1529,83
842,10	1398,76
842,27	1488,87
842,44	1398,76
842,62	1384,43
842,79	1601,51
842,96	1415,15
843,13	1415,15
843,30	1447,91
843,48	1458,15
843,65	1529,83
843,82	1460,20
843,99	1447,91
844,16	1505,26
844,34	1630,18
844,51	1652,71
844,68	1693,67
844,85	1726,44
845,02	1669,09
845,20	1587,18
845,37	1630,18
845,54	1685,48
845,71	1441,77
845,88	1599,46
846,06	1621,99
846,23	1488,87
846,40	1505,26
846,57	1546,22
846,74	1523,69
846,91	1521,64
847,09	1554,41
847,26	1497,07
847,43	1529,83
847,60	1439,72
847,77	1456,11
847,94	1515,50
848,12	1439,72
848,29	1505,26
848,46	1499,11
848,63	1480,68
848,80	1439,72
848,97	1497,07
849,15	1615,85
849,32	1433,58
849,49	1447,91
849,66	1449,96
849,83	1406,95
850,00	1538,02
850,17	1406,95
850,35	1458,15
850,52	1521,64
850,69	1398,76
850,86	1472,49
851,03	1439,72
851,20	1409,00
851,37	1591,27
851,55	1419,24
851,72	1454,06
851,89	1505,26
852,06	1458,15
852,23	1499,11
852,40	1570,79
852,57	1378,28
852,74	1480,68
852,92	1366,00
853,09	1402,86
853,26	1452,01
853,43	1474,54
853,60	1439,72
853,77	1490,92
853,94	1431,53
854,11	1390,57
854,28	1826,79
854,45	1562,60
854,63	1456,11
854,80	1480,68
854,97	1523,69
855,14	1458,15
855,31	1499,11
855,48	1419,24
855,65	1456,11
855,82	1480,68
855,99	1480,68
856,16	1482,73
856,33	1619,94
856,50	1423,34
856,68	1351,66
856,85	1546,22
857,02	1402,86
857,19	1415,15
857,36	1540,07
857,53	1472,49
857,70	1460,20
857,87	1423,34
858,04	1386,47
858,21	1476,59
858,38	1464,30
858,55	1462,25
858,72	1431,53
858,89	1464,30
859,06	1599,46
859,23	1456,11
859,40	1566,70
859,58	1423,34
859,75	1447,91
859,92	1490,92
860,09	1497,07
860,26	1400,81
860,43	1409,00
860,60	1447,91
860,77	1419,24
860,94	1423,34
861,11	1466,35
861,28	1484,78
861,45	1501,16
861,62	1523,69
861,79	1460,20
861,96	1431,53
862,13	1521,64
862,30	1447,91
862,47	1404,91
862,64	1570,79
862,81	1417,19
862,98	1423,34
863,15	1406,95
863,32	1488,87
863,49	1480,68
863,66	1480,68
863,83	1466,35
864,00	1357,80
864,17	1472,49
864,34	1472,49
864,51	1423,34
864,68	1417,19
864,85	1413,10
865,02	1431,53
865,19	1474,54
865,36	1452,01
865,53	1488,87
865,70	1447,91
865,87	1480,68
866,04	1517,54
866,21	1439,72
866,38	1556,46
866,55	1439,72
866,72	1466,35
866,89	1507,30
867,06	1456,11
867,23	1441,77
867,40	1439,72
867,57	1488,87
867,73	1476,59
867,90	1406,95
868,07	1431,53
868,24	1476,59
868,41	1480,68
868,58	1468,39
868,75	1505,26
868,92	1456,11
869,09	1513,45
869,26	1499,11
869,43	1482,73
869,60	1423,34
869,77	1464,30
869,94	1456,11
870,11	1497,07
870,28	1400,81
870,45	1433,58
870,61	1513,45
870,78	1439,72
870,95	1521,64
871,12	1480,68
871,29	1447,91
871,46	1529,83
871,63	1480,68
871,80	1433,58
871,97	1366,00
872,14	1531,88
872,31	1505,26
872,47	1456,11
872,64	1452,01
872,81	1474,54
872,98	1447,91
873,15	1439,72
873,32	1558,50
873,49	1507,30
873,66	1488,87
873,83	1488,87
874,00	1521,64
874,16	1411,05
874,33	1513,45
874,50	1400,81
874,67	1368,04
874,84	1480,68
875,01	1406,95
875,18	1464,30
875,35	1396,71
875,51	1423,34
875,68	1509,35
875,85	1466,35
876,02	1384,43
876,19	1501,16
876,36	1480,68
876,53	1488,87
876,69	1456,11
876,86	1533,93
877,03	1452,01
877,20	1443,82
877,37	1466,35
877,54	1431,53
877,71	1521,64
877,87	1531,88
878,04	1562,60
878,21	1316,84
878,38	1400,81
878,55	1431,53
878,72	1359,85
878,88	1406,95
879,05	1578,98
879,22	1398,76
879,39	1495,02
879,56	1402,86
879,73	1464,30
879,89	1431,53
880,06	1578,98
880,23	1497,07
880,40	1447,91
880,57	1517,54
880,74	1456,11
880,90	1439,72
881,07	1529,83
881,24	1542,12
881,41	1458,15
881,58	1488,87
881,74	1464,30
881,91	1488,87
882,08	1507,30
882,25	1529,83
882,42	1423,34
882,58	1640,42
882,75	1490,92
882,92	1449,96
883,09	1464,30
883,26	1570,79
883,42	1566,70
883,59	1499,11
883,76	1400,81
883,93	1499,11
884,09	1447,91
884,26	1497,07
884,43	1548,26
884,60	1562,60
884,77	1597,42
884,93	1505,26
885,10	1492,97
885,27	1570,79
885,44	1513,45
885,60	1570,79
885,77	1533,93
885,94	1513,45
886,11	1488,87
886,27	1497,07
886,44	1570,79
886,61	1439,72
886,78	1490,92
886,94	1468,39
887,11	1587,18
887,28	1488,87
887,45	1382,38
887,61	1476,59
887,78	1456,11
887,95	1406,95
888,12	1515,50
888,28	1464,30
888,45	1447,91
888,62	1484,78
888,78	1415,15
888,95	1507,30
889,12	1464,30
889,29	1546,22
889,45	1406,95
889,62	1558,50
889,79	1474,54
889,95	1431,53
890,12	1411,05
890,29	1476,59
890,46	1538,02
890,62	1505,26
>>>>>End Processed Spectral Data<<<<<
