SpectraSuite Data File
++++++++++++++++++++++++++++++++++++
Date: Fri Sep 15 20:16:36 BRT 2023
User: Alunos
Dark Spectrum Present: No
Reference Spectrum Present: No
Number of Sampled Component Spectra: 1
Spectrometers: USB4F07961
Integration Time (usec): 100000 (USB4F07961)
Spectra Averaged: 1 (USB4F07961)
Boxcar Smoothing: 0 (USB4F07961)
Correct for Electrical Dark: No (USB4F07961)
Strobe/Lamp Enabled: No (USB4F07961)
Correct for Detector Non-linearity: No (USB4F07961)
Correct for Stray Light: No (USB4F07961)
Number of Pixels in Processed Spectrum: 3648
>>>>>Begin Processed Spectral Data<<<<<
178,13	1294,32
178,35	1294,32
178,57	1294,32
178,78	1318,89
179,00	1259,50
179,22	1497,07
179,44	1490,92
179,66	1460,20
179,87	1538,02
180,09	1505,26
180,31	1482,73
180,53	1521,64
180,75	1460,20
180,96	1431,53
181,18	1497,07
181,40	1390,57
181,62	1368,04
181,84	1452,01
182,05	1474,54
182,27	1439,72
182,49	1533,93
182,71	1482,73
182,92	1581,03
183,14	1570,79
183,36	1509,35
183,58	1472,49
183,80	1611,75
184,01	1531,88
184,23	1636,33
184,45	1638,38
184,67	1548,26
184,89	1505,26
185,10	1578,98
185,32	1619,94
185,54	1523,69
185,76	1546,22
185,97	1513,45
186,19	1497,07
186,41	1499,11
186,63	1464,30
186,84	1464,30
187,06	1562,60
187,28	1669,09
187,50	1441,77
187,72	1628,14
187,93	1605,61
188,15	1529,83
188,37	1513,45
188,59	1460,20
188,80	1636,33
189,02	1482,73
189,24	1423,34
189,46	1578,98
189,67	1578,98
189,89	1581,03
190,11	1472,49
190,33	1574,89
190,54	1597,42
190,76	1611,75
190,98	1505,26
191,20	1581,03
191,41	1529,83
191,63	1677,29
191,85	1507,30
192,07	1529,83
192,28	1562,60
192,50	1595,37
192,72	1538,02
192,94	1570,79
193,15	1624,04
193,37	1685,48
193,59	1603,56
193,81	1621,99
194,02	1505,26
194,24	1587,18
194,46	1578,98
194,67	1603,56
194,89	1497,07
195,11	1556,46
195,33	1542,12
195,54	1628,14
195,76	1533,93
195,98	1521,64
196,20	1507,30
196,41	1562,60
196,63	1499,11
196,85	1611,75
197,06	1529,83
197,28	1581,03
197,50	1439,72
197,72	1554,41
197,93	1546,22
198,15	1542,12
198,37	1572,84
198,58	1556,46
198,80	1572,84
199,02	1583,08
199,24	1452,01
199,45	1636,33
199,67	1529,83
199,89	1521,64
200,10	1439,72
200,32	1452,01
200,54	1507,30
200,76	1562,60
200,97	1562,60
201,19	1574,89
201,41	1558,50
201,62	1562,60
201,84	1570,79
202,06	1589,22
202,28	1562,60
202,49	1595,37
202,71	1624,04
202,93	1544,17
203,14	1447,91
203,36	1529,83
203,58	1517,54
203,79	1480,68
204,01	1574,89
204,23	1595,37
204,44	1615,85
204,66	1564,65
204,88	1529,83
205,10	1540,07
205,31	1523,69
205,53	1499,11
205,75	1611,75
205,96	1513,45
206,18	1546,22
206,40	1499,11
206,61	1415,15
206,83	1578,98
207,05	1441,77
207,26	1562,60
207,48	1521,64
207,70	1531,88
207,91	1574,89
208,13	1472,49
208,35	1476,59
208,56	1521,64
208,78	1611,75
209,00	1427,43
209,21	1556,46
209,43	1581,03
209,65	1548,26
209,86	1558,50
210,08	1562,60
210,30	1538,02
210,51	1572,84
210,73	1488,87
210,95	1529,83
211,16	1492,97
211,38	1472,49
211,60	1480,68
211,81	1521,64
212,03	1523,69
212,25	1564,65
212,46	1499,11
212,68	1644,52
212,90	1488,87
213,11	1572,84
213,33	1609,70
213,55	1488,87
213,76	1570,79
213,98	1521,64
214,20	1556,46
214,41	1619,94
214,63	1638,38
214,84	1611,75
215,06	1548,26
215,28	1572,84
215,49	1613,80
215,71	1599,46
215,93	1644,52
216,14	1488,87
216,36	1630,18
216,58	1509,35
216,79	1513,45
217,01	1574,89
217,22	1538,02
217,44	1693,67
217,66	1566,70
217,87	1572,84
218,09	1464,30
218,31	1439,72
218,52	1570,79
218,74	1439,72
218,95	1587,18
219,17	1533,93
219,39	1488,87
219,60	1599,46
219,82	1554,41
220,04	1603,56
220,25	1525,74
220,47	1628,14
220,68	1603,56
220,90	1482,73
221,12	1636,33
221,33	1423,34
221,55	1615,85
221,77	1546,22
221,98	1497,07
222,20	1521,64
222,41	1538,02
222,63	1550,31
222,85	1570,79
223,06	1499,11
223,28	1521,64
223,49	1415,15
223,71	1513,45
223,93	1556,46
224,14	1615,85
224,36	1587,18
224,57	1554,41
224,79	1505,26
225,01	1556,46
225,22	1538,02
225,44	1488,87
225,65	1570,79
225,87	1603,56
226,09	1615,85
226,30	1589,22
226,52	1538,02
226,73	1384,43
226,95	1619,94
227,17	1615,85
227,38	1464,30
227,60	1576,94
227,81	1480,68
228,03	1513,45
228,24	1603,56
228,46	1578,98
228,68	1589,22
228,89	1521,64
229,11	1515,50
229,32	1605,61
229,54	1523,69
229,75	1589,22
229,97	1490,92
230,19	1476,59
230,40	1484,78
230,62	1507,30
230,83	1562,60
231,05	1521,64
231,26	1558,50
231,48	1538,02
231,70	1591,27
231,91	1538,02
232,13	1513,45
232,34	1556,46
232,56	1566,70
232,77	1603,56
232,99	1464,30
233,21	1736,68
233,42	1525,74
233,64	1638,38
233,85	1509,35
234,07	1599,46
234,28	1587,18
234,50	1490,92
234,71	1550,31
234,93	1611,75
235,15	1468,39
235,36	1548,26
235,58	1513,45
235,79	1501,16
236,01	1546,22
236,22	1581,03
236,44	1660,90
236,65	1497,07
236,87	1515,50
237,08	1562,60
237,30	1538,02
237,52	1525,74
237,73	1533,93
237,95	1531,88
238,16	1464,30
238,38	1605,61
238,59	1570,79
238,81	1603,56
239,02	1613,80
239,24	1540,07
239,45	1484,78
239,67	1603,56
239,88	1589,22
240,10	1621,99
240,31	1562,60
240,53	1558,50
240,74	1490,92
240,96	1603,56
241,18	1538,02
241,39	1464,30
241,61	1593,32
241,82	1456,11
242,04	1521,64
242,25	1538,02
242,47	1546,22
242,68	1456,11
242,90	1603,56
243,11	1464,30
243,33	1630,18
243,54	1644,52
243,76	1431,53
243,97	1693,67
244,19	1523,69
244,40	1562,60
244,62	1501,16
244,83	1564,65
245,05	1490,92
245,26	1497,07
245,48	1570,79
245,69	1574,89
245,91	1468,39
246,12	1464,30
246,34	1525,74
246,55	1556,46
246,77	1492,97
246,98	1529,83
247,20	1497,07
247,41	1513,45
247,63	1550,31
247,84	1523,69
248,06	1628,14
248,27	1513,45
248,49	1538,02
248,70	1611,75
248,92	1472,49
249,13	1439,72
249,35	1578,98
249,56	1517,54
249,78	1507,30
249,99	1615,85
250,21	1611,75
250,42	1546,22
250,64	1521,64
250,85	1529,83
251,06	1591,27
251,28	1595,37
251,49	1540,07
251,71	1490,92
251,92	1497,07
252,14	1540,07
252,35	1529,83
252,57	1499,11
252,78	1515,50
253,00	1546,22
253,21	1501,16
253,43	1542,12
253,64	1587,18
253,86	1529,83
254,07	1488,87
254,28	1384,43
254,50	1540,07
254,71	1505,26
254,93	1480,68
255,14	1583,08
255,36	1542,12
255,57	1607,66
255,79	1531,88
256,00	1619,94
256,22	1562,60
256,43	1517,54
256,64	1615,85
256,86	1581,03
257,07	1548,26
257,29	1521,64
257,50	1507,30
257,72	1554,41
257,93	1529,83
258,15	1652,71
258,36	1447,91
258,57	1497,07
258,79	1542,12
259,00	1529,83
259,22	1562,60
259,43	1505,26
259,65	1562,60
259,86	1554,41
260,08	1488,87
260,29	1669,09
260,50	1509,35
260,72	1947,62
260,93	1578,98
261,15	1538,02
261,36	1488,87
261,58	1554,41
261,79	1529,83
262,00	1556,46
262,22	1714,15
262,43	1605,61
262,65	1480,68
262,86	1538,02
263,07	1603,56
263,29	1660,90
263,50	1548,26
263,72	1595,37
263,93	1554,41
264,15	1538,02
264,36	1509,35
264,57	1572,84
264,79	1677,29
265,00	1488,87
265,22	1570,79
265,43	1578,98
265,64	1513,45
265,86	1521,64
266,07	1492,97
266,29	1607,66
266,50	1464,30
266,71	1521,64
266,93	1546,22
267,14	1521,64
267,36	1529,83
267,57	1591,27
267,78	1464,30
268,00	1556,46
268,21	1591,27
268,43	1642,47
268,64	1531,88
268,85	1480,68
269,07	1488,87
269,28	1583,08
269,50	1513,45
269,71	1572,84
269,92	1595,37
270,14	1621,99
270,35	1505,26
270,56	1628,14
270,78	1509,35
270,99	1540,07
271,21	1538,02
271,42	1562,60
271,63	1644,52
271,85	1538,02
272,06	1513,45
272,27	1509,35
272,49	1562,60
272,70	1538,02
272,92	1630,18
273,13	1531,88
273,34	1513,45
273,56	1490,92
273,77	1603,56
273,98	1540,07
274,20	1587,18
274,41	1558,50
274,63	1521,64
274,84	1523,69
275,05	1538,02
275,27	1554,41
275,48	1587,18
275,69	1509,35
275,91	1605,61
276,12	1540,07
276,33	1542,12
276,55	1611,75
276,76	1564,65
276,97	1656,81
277,19	1447,91
277,40	1443,82
277,61	1538,02
277,83	1566,70
278,04	1583,08
278,26	1472,49
278,47	1595,37
278,68	1652,71
278,90	1548,26
279,11	1458,15
279,32	1558,50
279,54	1611,75
279,75	1595,37
279,96	1556,46
280,18	1578,98
280,39	1646,57
280,60	1447,91
280,82	1589,22
281,03	1578,98
281,24	1591,27
281,46	1628,14
281,67	1587,18
281,88	1474,54
282,10	1497,07
282,31	1464,30
282,52	1554,41
282,74	1415,15
282,95	1603,56
283,16	1564,65
283,37	1503,21
283,59	1490,92
283,80	1538,02
284,01	1726,44
284,23	1406,95
284,44	1603,56
284,65	1654,76
284,87	1497,07
285,08	1660,90
285,29	1583,08
285,51	1583,08
285,72	1513,45
285,93	1558,50
286,15	1546,22
286,36	1480,68
286,57	1583,08
286,78	1570,79
287,00	1517,54
287,21	1521,64
287,42	1466,35
287,64	1468,39
287,85	1589,22
288,06	1572,84
288,28	1562,60
288,49	1492,97
288,70	1497,07
288,91	1568,74
289,13	1558,50
289,34	1624,04
289,55	1556,46
289,77	1513,45
289,98	1607,66
290,19	1531,88
290,40	1576,94
290,62	1542,12
290,83	1570,79
291,04	1482,73
291,26	1488,87
291,47	1472,49
291,68	1578,98
291,89	1482,73
292,11	1636,33
292,32	1562,60
292,53	1660,90
292,74	1538,02
292,96	1523,69
293,17	1562,60
293,38	1513,45
293,60	1570,79
293,81	1476,59
294,02	1439,72
294,23	1523,69
294,45	1538,02
294,66	1587,18
294,87	1589,22
295,08	1427,43
295,30	1578,98
295,51	1472,49
295,72	1669,09
295,93	1570,79
296,15	1581,03
296,36	1554,41
296,57	1638,38
296,78	1619,94
297,00	1464,30
297,21	1531,88
297,42	1624,04
297,63	1529,83
297,85	1529,83
298,06	1538,02
298,27	1515,50
298,48	1538,02
298,70	1538,02
298,91	1761,25
299,12	1521,64
299,33	1529,83
299,55	1538,02
299,76	1441,77
299,97	1660,90
300,18	1490,92
300,40	1456,11
300,61	1562,60
300,82	1564,65
301,03	1492,97
301,24	1501,16
301,46	1490,92
301,67	1546,22
301,88	1521,64
302,09	1578,98
302,31	1511,40
302,52	1546,22
302,73	1611,75
302,94	1587,18
303,15	1443,82
303,37	1525,74
303,58	1497,07
303,79	1644,52
304,00	1597,42
304,22	1476,59
304,43	1615,85
304,64	1548,26
304,85	1527,78
305,06	1564,65
305,28	1552,36
305,49	1554,41
305,70	1550,31
305,91	1509,35
306,12	1607,66
306,34	1531,88
306,55	1492,97
306,76	1529,83
306,97	1636,33
307,18	1497,07
307,40	1550,31
307,61	1611,75
307,82	1554,41
308,03	1611,75
308,24	1554,41
308,46	1513,45
308,67	1456,11
308,88	1542,12
309,09	1595,37
309,30	1587,18
309,52	1552,36
309,73	1464,30
309,94	1456,11
310,15	1447,91
310,36	1548,26
310,57	1546,22
310,79	1513,45
311,00	1513,45
311,21	1540,07
311,42	1656,81
311,63	1570,79
311,85	1570,79
312,06	1595,37
312,27	1628,14
312,48	1572,84
312,69	1435,63
312,90	1656,81
313,12	1497,07
313,33	1513,45
313,54	1693,67
313,75	1488,87
313,96	1611,75
314,17	1513,45
314,39	1490,92
314,60	1587,18
314,81	1570,79
315,02	1499,11
315,23	1521,64
315,44	1546,22
315,65	1554,41
315,87	1527,78
316,08	1546,22
316,29	1531,88
316,50	1542,12
316,71	1484,78
316,92	1486,83
317,14	1419,24
317,35	1425,39
317,56	1572,84
317,77	1628,14
317,98	1603,56
318,19	1460,20
318,40	1562,60
318,62	1581,03
318,83	1517,54
319,04	1636,33
319,25	1595,37
319,46	1654,76
319,67	1511,40
319,88	1538,02
320,09	1550,31
320,31	1621,99
320,52	1603,56
320,73	1587,18
320,94	1523,69
321,15	1542,12
321,36	1538,02
321,57	1595,37
321,78	1505,26
322,00	1628,14
322,21	1578,98
322,42	1452,01
322,63	1578,98
322,84	1492,97
323,05	1540,07
323,26	1540,07
323,47	1566,70
323,69	1564,65
323,90	1507,30
324,11	1546,22
324,32	1628,14
324,53	1556,46
324,74	1554,41
324,95	1578,98
325,16	1482,73
325,37	1509,35
325,59	1464,30
325,80	1581,03
326,01	1521,64
326,22	1636,33
326,43	1464,30
326,64	1591,27
326,85	1570,79
327,06	1587,18
327,27	1517,54
327,48	1587,18
327,69	1673,19
327,91	1531,88
328,12	1480,68
328,33	1447,91
328,54	1529,83
328,75	1572,84
328,96	1636,33
329,17	1482,73
329,38	1581,03
329,59	1562,60
329,80	1908,71
330,01	1644,52
330,23	1628,14
330,44	1603,56
330,65	1480,68
330,86	1472,49
331,07	1578,98
331,28	1636,33
331,49	1521,64
331,70	1554,41
331,91	1497,07
332,12	1546,22
332,33	1669,09
332,54	1574,89
332,75	1595,37
332,96	1521,64
333,17	1636,33
333,39	1603,56
333,60	1603,56
333,81	1613,80
334,02	1513,45
334,23	1558,50
334,44	1521,64
334,65	1562,60
334,86	1505,26
335,07	1562,60
335,28	1521,64
335,49	1695,72
335,70	1505,26
335,91	1529,83
336,12	1603,56
336,33	1671,14
336,54	1578,98
336,75	1597,42
336,96	1525,74
337,17	1578,98
337,39	1517,54
337,60	1603,56
337,81	1646,57
338,02	1521,64
338,23	1587,18
338,44	1482,73
338,65	1619,94
338,86	1603,56
339,07	1646,57
339,28	1611,75
339,49	1595,37
339,70	1578,98
339,91	1615,85
340,12	1619,94
340,33	1548,26
340,54	1548,26
340,75	1587,18
340,96	1513,45
341,17	1611,75
341,38	1572,84
341,59	1556,46
341,80	1660,90
342,01	1550,31
342,22	1550,31
342,43	1671,14
342,64	1660,90
342,85	1570,79
343,06	1591,27
343,27	1505,26
343,48	1583,08
343,69	1546,22
343,90	1515,50
344,11	1636,33
344,32	1589,22
344,53	1578,98
344,74	1550,31
344,95	1546,22
345,16	1542,12
345,37	1677,29
345,58	1619,94
345,79	1589,22
346,00	1611,75
346,21	1505,26
346,42	1556,46
346,63	1570,79
346,84	1595,37
347,05	1591,27
347,26	1546,22
347,47	1597,42
347,68	1615,85
347,89	1613,80
348,10	1505,26
348,31	1636,33
348,52	1564,65
348,73	1597,42
348,94	1538,02
349,15	1695,72
349,36	1562,60
349,57	1542,12
349,78	1613,80
349,99	1636,33
350,20	1673,19
350,41	1546,22
350,62	1476,59
350,83	1589,22
351,04	1529,83
351,25	1605,61
351,46	1589,22
351,67	1521,64
351,88	1562,60
352,09	1619,94
352,30	1597,42
352,50	1712,10
352,71	1613,80
352,92	1505,26
353,13	1603,56
353,34	1554,41
353,55	1578,98
353,76	1605,61
353,97	1660,90
354,18	1570,79
354,39	1556,46
354,60	1710,05
354,81	1597,42
355,02	1624,04
355,23	1646,57
355,44	1599,46
355,65	1570,79
355,86	1603,56
356,07	1660,90
356,28	1652,71
356,48	1562,60
356,69	1656,81
356,90	1603,56
357,11	1611,75
357,32	1615,85
357,53	1630,18
357,74	1726,44
357,95	1644,52
358,16	1578,98
358,37	1619,94
358,58	1595,37
358,79	1556,46
359,00	1660,90
359,21	1609,70
359,41	1742,82
359,62	1662,95
359,83	1531,88
360,04	1589,22
360,25	1712,10
360,46	1585,13
360,67	1556,46
360,88	1521,64
361,09	1679,33
361,30	1603,56
361,51	1589,22
361,72	1611,75
361,92	1767,40
362,13	1611,75
362,34	1662,95
362,55	1673,19
362,76	1558,50
362,97	1640,42
363,18	1693,67
363,39	1621,99
363,60	1701,86
363,81	1632,23
364,01	1742,82
364,22	1726,44
364,43	1644,52
364,64	1695,72
364,85	1687,53
365,06	1574,89
365,27	1630,18
365,48	1621,99
365,69	1710,05
365,89	1595,37
366,10	1581,03
366,31	1646,57
366,52	1677,29
366,73	1671,14
366,94	1677,29
367,15	1624,04
367,36	1628,14
367,57	1816,55
367,77	1808,36
367,98	1722,34
368,19	1599,46
368,40	1693,67
368,61	1697,77
368,82	1605,61
369,03	1701,86
369,23	1759,21
369,44	1605,61
369,65	1628,14
369,86	1677,29
370,07	1679,33
370,28	1718,25
370,49	1695,72
370,70	1689,57
370,90	1644,52
371,11	1646,57
371,32	1771,49
371,53	1763,30
371,74	1667,05
371,95	1755,11
372,16	1488,87
372,36	1677,29
372,57	1710,05
372,78	1691,62
372,99	1638,38
373,20	1652,71
373,41	1562,60
373,61	1652,71
373,82	1777,64
374,03	1718,25
374,24	1687,53
374,45	1824,74
374,66	1669,09
374,86	1744,87
375,07	1720,29
375,28	1734,63
375,49	1619,94
375,70	1751,01
375,91	1687,53
376,11	1742,82
376,32	1753,06
376,53	1736,68
376,74	1751,01
376,95	2176,99
377,16	1751,01
377,36	1728,49
377,57	1751,01
377,78	1710,05
377,99	1742,82
378,20	1718,25
378,40	1734,63
378,61	1834,98
378,82	1761,25
379,03	1652,71
379,24	1867,75
379,45	1685,48
379,65	1693,67
379,86	1787,88
380,07	1685,48
380,28	1669,09
380,49	1753,06
380,69	1861,60
380,90	1849,32
381,11	1746,92
381,32	1777,64
381,53	1718,25
381,73	1787,88
381,94	1714,15
382,15	1759,21
382,36	1824,74
382,57	1767,40
382,77	1710,05
382,98	1761,25
383,19	1718,25
383,40	1808,36
383,60	1800,16
383,81	1804,26
384,02	1791,97
384,23	1800,16
384,44	1703,91
384,64	1816,55
384,85	1791,97
385,06	1734,63
385,27	1802,21
385,48	1777,64
385,68	1767,40
385,89	1832,93
386,10	1796,07
386,31	1779,68
386,51	1810,40
386,72	1851,36
386,93	1832,93
387,14	1834,98
387,34	1736,68
387,55	1804,26
387,76	1738,73
387,97	1873,89
388,17	1845,22
388,38	1767,40
388,59	1873,89
388,80	1857,51
389,01	1857,51
389,21	1816,55
389,42	1914,85
389,63	1910,75
389,84	1824,74
390,04	1867,75
390,25	1906,66
390,46	1941,47
390,67	1906,66
390,87	1796,07
391,08	1873,89
391,29	1853,41
391,49	1832,93
391,70	1910,75
391,91	1837,03
392,12	1877,99
392,32	1849,32
392,53	1914,85
392,74	1939,43
392,95	1851,36
393,15	1947,62
393,36	1875,94
393,57	1982,43
393,78	1914,85
393,98	1974,24
394,19	1923,04
394,40	2058,21
394,60	1996,77
394,81	1916,90
395,02	1843,17
395,23	1923,04
395,43	1988,58
395,64	2054,11
395,85	1882,08
396,06	1851,36
396,26	2004,96
396,47	1955,81
396,68	1906,66
396,88	2080,74
397,09	1939,43
397,30	2041,82
397,50	1996,77
397,71	2037,73
397,92	2023,39
398,13	2037,73
398,33	1972,19
398,54	2097,12
398,75	1974,24
398,95	2062,30
399,16	2156,51
399,37	2086,88
399,57	2088,93
399,78	2187,23
399,99	2154,46
400,20	2234,33
400,40	1980,39
400,61	2029,54
400,82	2013,15
401,02	2205,66
401,23	2121,70
401,44	2144,22
401,64	2072,54
401,85	2095,07
402,06	2201,57
402,26	2209,76
402,47	2162,66
402,68	2373,60
402,88	2146,27
403,09	2318,30
403,30	2226,14
403,50	2103,26
403,71	2267,10
403,92	2095,07
404,12	2078,69
404,33	2172,89
404,54	2195,42
404,74	2234,33
404,95	2228,19
405,16	2209,76
405,36	2176,99
405,57	2152,42
405,78	2320,35
405,98	2234,33
406,19	2127,84
406,40	2250,72
406,60	2291,68
406,81	2285,53
407,02	2299,87
407,22	2406,36
407,43	2293,72
407,64	2365,40
407,84	2242,53
408,05	2373,60
408,26	2308,06
408,46	2422,75
408,67	2492,38
408,87	2318,30
409,08	2404,32
409,29	2447,32
409,49	2373,60
409,70	2445,27
409,91	2455,51
410,11	2441,18
410,32	2570,20
410,53	2426,84
410,73	2455,51
410,94	2572,25
411,14	2344,92
411,35	2521,05
411,56	2553,82
411,76	2635,74
411,97	2553,82
412,18	2435,03
412,38	2508,76
412,59	2521,05
412,79	2590,68
413,00	2594,78
413,21	2521,05
413,41	2594,78
413,62	2623,45
413,82	2471,90
414,03	2598,87
414,24	2697,17
414,44	2633,69
414,65	2586,58
414,86	2549,72
415,06	2574,30
415,27	2668,50
415,47	2752,47
415,68	2582,49
415,89	2594,78
416,09	2688,98
416,30	2463,71
416,50	2717,65
416,71	2807,77
416,92	2652,12
417,12	2785,24
417,33	2709,46
417,53	2645,98
417,74	2629,59
417,94	2795,48
418,15	2734,04
418,36	2777,05
418,56	2693,08
418,77	2664,41
418,97	2709,46
419,18	2770,90
419,39	2623,45
419,59	2742,23
419,80	2701,27
420,00	2627,54
420,21	2562,01
420,41	2717,65
420,62	2840,53
420,83	2848,72
421,03	2768,85
421,24	2901,97
421,44	2877,40
421,65	2865,11
421,85	2744,28
422,06	2783,19
422,27	2848,72
422,47	2807,77
422,68	2947,03
422,88	2807,77
423,09	2760,66
423,29	2908,12
423,50	2938,84
423,70	2820,05
423,91	2920,40
424,12	2938,84
424,32	2914,26
424,53	2947,03
424,73	2983,89
424,94	2881,49
425,14	2836,44
425,35	2897,88
425,55	2963,41
425,76	3006,42
425,96	2906,07
426,17	2885,59
426,37	2971,60
426,58	3053,52
426,79	2975,70
426,99	3131,34
427,20	3114,96
427,40	3057,62
427,61	3020,75
427,81	3004,37
428,02	3045,33
428,22	3217,36
428,43	3135,44
428,63	3037,14
428,84	3069,91
429,04	3006,42
429,25	3225,55
429,45	3137,49
429,66	3311,57
429,86	3071,95
430,07	3119,06
430,27	3168,21
430,48	3323,85
430,68	3119,06
430,89	3268,56
431,09	3186,64
431,30	3252,17
431,50	3266,51
431,71	3307,47
431,91	3209,17
432,12	3323,85
432,32	3262,41
432,53	3172,30
432,73	3233,74
432,94	3235,79
433,14	3315,66
433,35	3317,71
433,55	3332,05
433,76	3227,60
433,96	3495,88
434,17	3307,47
434,37	3348,43
434,58	3284,94
434,78	3364,81
434,99	3422,16
435,19	3473,36
435,40	3512,27
435,60	3553,23
435,81	3594,19
436,01	3602,38
436,22	3676,10
436,42	3626,95
436,63	3545,03
436,83	3784,65
437,04	3528,65
437,24	3538,89
437,45	3545,03
437,65	3422,16
437,86	3827,65
438,06	3610,57
438,26	3555,27
438,47	3571,66
438,67	3749,83
438,88	3739,59
439,08	3532,75
439,29	3629,00
439,49	3610,57
439,70	3801,03
439,90	3612,62
440,11	3712,97
440,31	3643,34
440,52	3585,99
440,72	3733,45
440,92	3645,38
441,13	3672,01
441,33	3733,45
441,54	3872,71
441,74	3817,41
441,95	3692,49
442,15	3872,71
442,36	3741,64
442,56	3850,18
442,76	3684,30
442,97	3635,14
443,17	3633,10
443,38	3932,10
443,58	3864,52
443,79	3778,50
443,99	3893,19
444,19	3889,09
444,40	3829,70
444,60	3850,18
444,81	3676,10
445,01	3938,24
445,22	3655,62
445,42	3809,22
445,62	3987,40
445,83	3823,56
446,03	4005,83
446,24	3930,05
446,44	4077,51
446,64	3897,28
446,85	3803,08
447,05	3962,82
447,26	3917,76
447,46	3950,53
447,67	3950,53
447,87	3858,37
448,07	4036,55
448,28	3905,48
448,48	3960,77
448,69	3856,33
448,89	3938,24
449,09	4067,27
449,30	4065,22
449,50	4128,70
449,71	4022,21
449,91	4251,58
450,11	4036,55
450,32	4159,42
450,52	4011,97
450,72	4095,94
450,93	4028,35
451,13	4050,88
451,34	4175,81
451,54	4157,38
451,74	4186,05
451,95	4186,05
452,15	4036,55
452,36	4128,70
452,56	4339,65
452,76	4130,75
452,97	4044,74
453,17	4511,68
453,37	4237,25
453,58	4077,51
453,78	4306,88
453,98	4257,73
454,19	4259,78
454,39	4186,05
454,60	4315,07
454,80	4159,42
455,00	4366,27
455,21	4179,90
455,41	4341,69
455,61	4380,61
455,82	4356,03
456,02	4167,62
456,22	4370,37
456,43	4374,46
456,63	4626,36
456,84	4521,92
457,04	4571,07
457,24	4517,82
457,45	4577,21
457,65	4569,02
457,85	4503,48
458,06	4519,87
458,26	4609,98
458,46	4667,32
458,67	4798,39
458,87	4831,16
459,07	4577,21
459,28	4618,17
459,48	4642,75
459,68	4732,86
459,89	4757,43
460,09	4691,90
460,29	4890,55
460,50	4659,13
460,70	4782,01
460,90	4765,62
461,11	4900,79
461,31	4982,71
461,51	4888,50
461,72	4986,80
461,92	5111,73
462,12	4847,54
462,32	4921,27
462,53	5150,64
462,73	5371,82
462,93	4997,04
463,14	5220,27
463,34	4868,02
463,54	5062,58
463,75	5109,68
463,95	5056,43
464,15	5347,25
464,36	5306,29
464,56	5253,04
464,76	5105,59
464,96	5109,68
465,17	5214,13
465,37	5158,83
465,57	5560,24
465,78	5513,13
465,98	5433,26
466,18	5330,86
466,39	5373,87
466,59	5595,05
466,79	5543,85
466,99	5734,31
467,20	5707,69
467,40	5531,56
467,60	5556,14
467,81	5562,28
468,01	6059,94
468,21	5734,31
468,41	5789,61
468,62	5922,73
468,82	5875,62
469,02	5846,95
469,22	5937,06
469,43	5777,32
469,63	5988,26
469,83	6133,67
470,04	6281,12
470,24	6260,64
470,44	6358,94
470,64	6530,97
470,85	6387,61
471,05	6109,09
471,25	6332,32
471,45	6422,43
471,66	6610,84
471,86	6682,52
472,06	6670,23
472,26	6682,52
472,47	6584,22
472,67	6748,06
472,87	7083,92
473,07	6692,76
473,28	6809,50
473,48	6856,60
473,68	6991,77
473,88	7094,16
474,09	7092,12
474,29	7174,03
474,49	7337,87
474,69	7288,72
474,90	6940,57
475,10	7313,30
475,30	7589,77
475,50	7643,02
475,70	7446,41
475,91	7591,82
476,11	7573,39
476,31	7954,31
476,51	7593,87
476,72	7798,66
476,92	7706,51
477,12	8019,85
477,32	7868,30
477,53	8030,09
477,73	8134,53
477,93	8083,33
478,13	8273,79
478,33	8132,48
478,54	8255,36
478,74	8376,19
478,94	8263,55
479,14	8456,06
479,34	8380,29
479,55	8427,39
479,75	8484,73
479,95	8775,55
480,15	8879,99
480,35	8804,22
480,56	9000,82
480,76	9021,30
480,96	8927,10
481,16	8910,71
481,36	8968,06
481,57	8791,93
481,77	9049,97
481,97	9330,55
482,17	9099,13
482,37	9467,76
482,58	9314,16
482,78	9215,86
482,98	9582,45
483,18	9230,20
483,38	9387,89
483,58	9652,08
483,79	9672,56
483,99	9627,50
484,19	9428,85
484,39	9926,50
484,59	10037,09
484,80	9770,86
485,00	9871,21
485,20	9938,79
485,40	10219,36
485,60	10114,92
485,80	10110,82
486,01	10219,36
486,21	10184,55
486,41	10512,22
486,61	10598,24
486,81	10403,68
487,01	10540,90
487,22	10762,08
487,42	10422,11
487,62	10510,18
487,82	10518,37
488,02	10590,05
488,22	10827,61
488,42	10950,49
488,63	11083,61
488,83	10878,81
489,03	11138,90
489,23	11245,40
489,43	11089,75
489,63	11337,56
489,83	11102,04
490,04	11190,10
490,24	11083,61
490,44	11280,21
490,64	11351,89
490,84	11274,07
491,04	11616,08
491,24	11401,04
491,44	11507,54
491,65	11493,20
491,85	11556,69
492,05	11616,08
492,25	11632,46
492,45	11728,72
492,65	11990,86
492,85	11933,51
493,05	11863,88
493,26	11679,57
493,46	12083,02
493,66	11999,05
493,86	11958,09
494,06	11972,43
494,26	12056,39
494,46	12097,35
494,66	12015,43
494,86	12220,23
495,07	12250,95
495,27	12091,21
495,47	12369,73
495,67	12138,31
495,87	12324,68
496,07	12492,61
496,27	12580,67
496,47	12351,30
496,67	12498,75
496,87	12433,22
497,08	12541,76
497,28	12646,21
497,48	12425,03
497,68	12910,40
497,88	12836,67
498,08	12695,36
498,28	12769,09
498,48	12625,73
498,68	12709,69
498,88	12982,07
499,08	12871,48
499,29	13188,92
499,49	13199,16
499,69	12906,30
499,89	13035,32
500,09	13104,95
500,29	13109,05
500,49	13137,72
500,69	13145,91
500,89	13061,94
501,09	13096,76
501,29	13129,53
501,49	13322,04
501,69	13330,23
501,89	13377,33
502,09	13352,76
502,30	13403,96
502,50	13440,82
502,70	13383,48
502,90	13588,27
503,10	13449,01
503,30	13555,51
503,50	13575,98
503,70	13408,05
503,90	13500,21
504,10	13829,93
504,30	13539,12
504,50	13899,56
504,70	13815,60
504,90	13899,56
505,10	13883,18
505,30	13846,32
505,50	14055,21
505,70	13852,46
505,90	14124,84
506,10	14120,74
506,30	14491,43
506,50	14401,32
506,70	14364,45
506,90	14317,35
507,11	14260,01
507,31	14227,24
507,51	14403,36
507,71	14587,68
507,91	14622,50
508,11	14677,79
508,31	14188,33
508,51	14634,78
508,71	14647,07
508,91	14706,46
509,11	14837,53
509,31	14933,79
509,51	15079,19
509,71	15148,82
509,91	15034,14
510,11	15081,24
510,31	15308,57
510,51	15238,94
510,71	15220,50
510,91	15136,54
511,11	15171,35
511,31	15662,86
511,51	15439,64
511,71	15468,31
511,91	15488,79
512,11	15521,56
512,31	15468,31
512,51	15779,60
512,71	15771,41
512,91	15882,00
513,11	15587,09
513,31	15750,93
513,51	15752,98
513,71	16105,23
513,91	15925,00
514,11	16234,25
514,31	16371,46
514,51	16250,63
514,71	16201,48
514,90	16326,41
515,10	16463,62
515,30	16631,55
515,50	16357,13
515,70	16791,30
515,90	16676,61
516,10	16774,91
516,30	16506,63
516,50	17110,78
516,70	16930,56
516,90	16979,71
517,10	17145,59
517,30	17286,90
517,50	16930,56
517,70	16912,13
517,90	17389,30
518,10	17209,08
518,30	17434,36
518,50	17465,08
518,70	17450,74
518,90	17458,93
519,10	17592,05
519,30	17561,33
519,50	17807,09
519,69	17764,08
519,89	17827,57
520,09	17827,57
520,29	17702,64
520,49	17684,21
520,69	17825,52
520,89	17755,89
521,09	18116,33
521,29	18661,09
521,49	17860,34
521,69	17872,62
521,89	18003,69
522,09	18337,51
522,29	18341,61
522,48	18353,90
522,68	18106,09
522,88	18089,71
523,08	18218,73
523,28	18519,78
523,48	18357,99
523,68	18173,67
523,88	18437,86
524,08	18296,55
524,28	18413,29
524,48	18495,21
524,68	18568,93
524,87	18259,69
525,07	18388,71
525,27	18515,69
525,47	18646,76
525,67	18839,26
525,87	18290,41
526,07	18568,93
526,27	18509,54
526,47	18472,68
526,67	18659,04
526,86	18675,43
527,06	18405,10
527,26	18482,92
527,46	18867,94
527,66	18687,71
527,86	18609,89
528,06	18437,86
528,26	18865,89
528,46	18814,69
528,65	18751,20
528,85	18579,17
529,05	18634,47
529,25	18816,74
529,45	19044,06
529,65	18573,03
529,85	18890,46
530,05	18912,99
530,24	18902,75
530,44	19089,12
530,64	18912,99
530,84	18470,63
531,04	19085,02
531,24	19232,47
531,44	18933,47
531,63	19113,69
531,83	19015,39
532,03	19064,54
532,23	19121,88
532,43	19330,78
532,63	19175,13
532,83	19052,25
533,02	19207,90
533,22	19226,33
533,42	19207,90
533,62	19330,78
533,82	19275,48
534,02	19582,68
534,22	19148,51
534,41	19461,85
534,61	19304,15
534,81	19388,12
535,01	19142,36
535,21	19588,82
535,41	19621,59
535,60	19154,65
535,80	19437,27
536,00	19330,78
536,20	19271,39
536,40	19416,79
536,60	19521,24
536,79	19756,75
536,99	19723,99
537,19	19674,84
537,39	19406,55
537,59	19760,85
537,78	19465,94
537,98	19580,63
538,18	19414,74
538,38	19732,18
538,58	19687,12
538,77	20135,63
538,97	19654,36
539,17	19609,30
539,37	19982,03
539,57	19883,73
539,77	19656,40
539,96	19789,52
540,16	20104,91
540,36	20174,54
540,56	20330,19
540,76	20012,75
540,95	20135,63
541,15	19871,44
541,35	20190,92
541,55	20100,81
541,74	20190,92
541,94	20518,60
542,14	20321,99
542,34	20309,71
542,54	20477,64
542,73	20563,65
542,93	20420,30
543,13	20207,31
543,33	20631,24
543,53	20442,82
543,72	20537,03
543,92	20723,40
544,12	20510,41
544,32	20383,43
544,51	20657,86
544,71	20596,42
544,91	20414,15
545,11	20526,79
545,30	20645,57
545,50	20192,97
545,70	21071,55
545,90	20719,30
546,10	20532,93
546,29	20952,77
546,49	21176,00
546,69	20866,75
546,89	20758,21
547,08	21194,43
547,28	20616,90
547,48	20817,60
547,68	20807,36
547,87	20647,62
548,07	20731,59
548,27	20838,08
548,47	20676,29
548,66	20903,62
548,86	20743,88
549,06	20719,30
549,25	20924,10
549,45	20836,03
549,65	20956,86
549,85	21003,97
550,04	20709,06
550,24	20879,04
550,44	20809,41
550,64	20743,88
550,83	20739,78
551,03	20991,68
551,23	20903,62
551,43	21014,21
551,62	20866,75
551,82	20881,09
552,02	20932,29
552,21	20731,59
552,41	21284,54
552,61	21157,57
552,81	20823,75
553,00	20764,36
553,20	21096,13
553,40	21337,79
553,59	21198,52
553,79	21116,61
553,99	21149,37
554,18	21100,22
554,38	21159,61
554,58	21370,55
554,78	21505,72
554,97	21315,26
555,17	21536,44
555,37	21245,63
555,56	21438,14
555,76	21319,35
555,96	21249,72
556,15	21061,31
556,35	21219,00
556,55	21411,51
556,74	21601,97
556,94	21249,72
557,14	21040,83
557,34	21219,00
557,53	21472,95
557,73	21374,65
557,93	21558,97
558,12	21585,59
558,32	21270,20
558,52	21534,39
558,71	21548,73
558,91	21599,93
559,11	21610,17
559,30	21716,66
559,50	21618,36
559,70	21911,22
559,89	21782,20
560,09	21405,37
560,29	21767,86
560,48	21477,05
560,68	21855,92
560,88	21481,14
561,07	21683,89
561,27	21657,27
561,46	21880,50
561,66	21855,92
561,86	22009,52
562,05	21702,32
562,25	21962,42
562,45	21821,11
562,64	21837,49
562,84	21915,31
563,04	22136,49
563,23	21907,12
563,43	22283,95
563,63	21878,45
563,82	22357,67
564,02	22005,42
564,21	22339,24
564,41	22417,07
564,61	22030,00
564,80	22275,76
565,00	22226,60
565,20	22249,13
565,39	22206,13
565,59	22367,91
565,78	22341,29
565,98	22273,71
566,18	22359,72
566,37	22582,95
566,57	22271,66
566,77	22613,67
566,96	22148,78
567,16	22329,00
567,35	22156,97
567,55	22558,38
567,75	22453,93
567,94	22443,69
568,14	22460,07
568,33	22591,14
568,53	22435,50
568,73	23099,04
568,92	22415,02
569,12	22392,49
569,31	22525,61
569,51	22857,38
569,71	22716,07
569,90	22525,61
570,10	22908,58
570,29	23017,12
570,49	22890,15
570,69	23369,37
570,88	22605,48
571,08	23123,62
571,27	22730,41
571,47	23070,37
571,66	22988,45
571,86	23217,82
572,06	23121,57
572,25	22984,35
572,45	23146,14
572,64	22896,29
572,84	22933,15
573,03	23230,11
573,23	23015,07
573,43	23262,88
573,62	22943,39
573,82	23238,30
574,01	23223,97
574,21	23312,03
574,40	23348,89
574,60	23418,52
574,79	23531,16
574,99	23502,49
575,19	23488,15
575,38	23709,33
575,58	23314,08
575,77	23606,94
575,97	23795,35
576,16	23664,28
576,36	23797,40
576,55	23709,33
576,75	23602,84
576,94	23641,75
577,14	23627,42
577,34	23670,42
577,53	24010,39
577,73	23965,33
577,92	23910,04
578,12	23903,89
578,31	23934,61
578,51	24102,54
578,70	24088,21
578,90	24075,92
579,09	24065,68
579,29	24213,13
579,48	24067,73
579,68	24227,47
579,87	23934,61
580,07	24147,60
580,26	24327,82
580,46	24047,25
580,65	24065,68
580,85	24534,67
581,04	24321,68
581,24	24428,17
581,43	24589,96
581,63	23950,99
581,82	24583,82
582,02	24401,55
582,21	24714,89
582,41	24727,17
582,60	24196,75
582,80	24733,32
582,99	24843,91
583,19	24227,47
583,38	24723,08
583,58	24436,36
583,77	24985,22
583,97	24587,91
584,16	24704,65
584,36	24723,08
584,55	24809,09
584,75	25003,65
584,94	24917,64
585,14	25032,32
585,33	24923,78
585,53	25187,97
585,72	25005,70
585,92	24891,01
586,11	25026,18
586,31	25007,75
586,50	25380,48
586,70	25257,60
586,89	24813,19
587,09	25534,07
587,28	24934,02
587,47	25228,93
587,67	25224,83
587,86	25280,13
588,06	25200,26
588,25	25470,59
588,45	25495,16
588,64	25476,73
588,84	25417,34
589,03	25661,05
589,23	25196,16
589,42	25583,23
589,61	25482,88
589,81	25450,11
590,00	25568,89
590,20	25540,22
590,39	25634,42
590,59	25575,03
590,78	25687,67
590,98	25579,13
591,17	25493,12
591,36	25482,88
591,56	25327,23
591,75	26183,28
591,95	25591,42
592,14	25626,23
592,34	25732,73
592,53	25798,26
592,72	25843,32
592,92	25912,95
593,11	25953,91
593,31	25759,35
593,50	25871,99
593,69	26093,17
593,89	25601,66
594,08	26062,45
594,28	26109,55
594,47	25976,44
594,67	26058,35
594,86	25949,81
595,05	25613,95
595,25	25779,83
595,44	25771,64
595,64	26015,35
595,83	25831,03
596,02	26244,72
596,22	25615,99
596,41	26216,05
596,61	26252,91
596,80	26138,23
596,99	26091,12
597,19	25958,00
597,38	26156,66
597,58	26355,31
597,77	25835,13
597,96	26195,57
598,16	26107,51
598,35	26025,59
598,54	26101,36
598,74	26226,29
598,93	26205,81
599,13	26308,21
599,32	26277,49
599,51	26027,63
599,71	26441,32
599,90	26154,61
600,09	26353,26
600,29	26365,55
600,48	26408,56
600,68	26572,39
600,87	26406,51
601,06	26789,48
601,26	26320,49
601,45	26285,68
601,64	26472,04
601,84	26140,27
602,03	26519,15
602,22	26652,27
602,42	26363,50
602,61	26648,17
602,80	26148,46
603,00	26463,85
603,19	26304,11
603,38	26822,25
603,58	26170,99
603,77	26334,83
603,96	26738,28
604,16	26443,37
604,35	26631,79
604,54	26246,77
604,74	26646,12
604,93	26785,38
605,12	26508,91
605,32	26762,86
605,51	26506,86
605,70	26750,57
605,90	26539,63
606,09	26629,74
606,28	26566,25
606,48	26607,21
606,67	26416,75
606,86	26619,50
607,06	26771,05
607,25	26637,93
607,44	26590,83
607,64	26515,05
607,83	26658,41
608,02	26803,82
608,22	26510,96
608,41	26650,22
608,60	26355,31
608,79	26867,30
608,99	26424,94
609,18	26867,30
609,37	26449,52
609,57	26584,68
609,76	26830,44
609,95	26510,96
610,15	26705,51
610,34	26885,73
610,53	26355,31
610,72	26687,08
610,92	26967,65
611,11	27350,62
611,30	26977,89
611,50	26977,89
611,69	26936,93
611,88	26992,23
612,07	27336,29
612,27	26975,84
612,46	26732,14
612,65	26924,65
612,84	26943,08
613,04	27008,61
613,23	27014,76
613,42	26867,30
613,62	27061,86
613,81	26875,49
614,00	26723,94
614,19	27246,18
614,39	27125,35
614,58	27596,38
614,77	27276,90
614,96	27520,60
615,16	27375,20
615,35	27227,74
615,54	27520,60
615,73	27170,40
615,93	27465,31
616,12	27762,26
616,31	27471,45
616,50	27258,46
616,70	27684,44
616,89	27422,30
617,08	28161,62
617,27	27713,11
617,47	27737,69
617,66	27944,53
617,85	28221,01
618,04	28390,99
618,23	28018,26
618,43	28165,71
618,62	28208,72
618,81	28249,68
619,00	28606,03
619,20	28261,97
619,39	28317,26
619,58	28878,41
619,77	28567,12
619,96	29056,58
620,16	28911,17
620,35	28833,35
620,54	28761,67
620,73	28747,34
620,93	29093,44
621,12	29152,84
621,31	29328,96
621,50	29050,44
621,69	29769,27
621,89	29079,11
622,08	29435,45
622,27	29324,86
622,46	29392,45
622,65	29580,86
622,85	29644,35
623,04	29638,20
623,23	30017,08
623,42	29603,39
623,61	30174,77
623,81	29750,84
624,00	30144,05
624,19	29789,75
624,38	30379,57
624,57	29980,21
624,76	30135,86
624,96	30041,65
625,15	30211,64
625,34	30287,41
625,53	30371,38
625,72	30334,51
625,91	30283,31
626,11	30438,96
626,30	29888,06
626,49	30107,19
626,68	30004,79
626,87	30295,60
627,06	30316,08
627,26	30281,27
627,45	30215,73
627,64	30400,05
627,83	30158,39
628,02	30092,85
628,21	30146,10
628,41	30164,53
628,60	30199,35
628,79	30094,90
628,98	30426,67
629,17	30324,27
629,36	30533,17
629,55	30467,63
629,75	30275,12
629,94	30277,17
630,13	29896,25
630,32	29756,99
630,51	30049,85
630,70	29482,56
630,89	30314,03
631,09	29914,68
631,28	30025,27
631,47	30088,76
631,66	30064,18
631,85	29959,73
632,04	29992,50
632,23	29818,42
632,42	30107,19
632,62	29918,78
632,81	30019,13
633,00	29742,65
633,19	29394,50
633,38	29855,29
633,57	29386,30
633,76	29234,75
633,95	29408,83
634,14	29578,81
634,34	29259,33
634,53	29799,99
634,72	29525,57
634,91	29515,33
635,10	29320,77
635,29	29445,69
635,48	29206,08
635,67	28882,50
635,86	29281,86
636,05	29521,47
636,24	29070,92
636,44	29277,76
636,63	29398,59
636,82	29015,62
637,01	29410,88
637,20	29627,96
637,39	29464,13
637,58	29214,27
637,77	29152,84
637,96	29822,52
638,15	28888,65
638,34	29187,65
638,53	29075,01
638,73	29070,92
638,92	29171,27
639,11	29529,66
639,30	29240,90
639,49	29367,87
639,68	28976,71
639,87	29169,22
640,06	29460,03
640,25	29279,81
640,44	29322,82
640,63	29130,31
640,82	29259,33
641,01	29437,50
641,20	29337,15
641,39	29195,84
641,58	29255,23
641,77	29390,40
641,96	29140,55
642,16	29267,52
642,35	28911,17
642,54	29468,22
642,73	29124,16
642,92	29437,50
643,11	29404,74
643,30	29087,30
643,49	29224,51
643,68	29251,14
643,87	29402,69
644,06	29349,44
644,25	29122,12
644,44	29410,88
644,63	29099,59
644,82	29451,84
645,01	29044,29
645,20	29316,67
645,39	29541,95
645,58	29269,57
645,77	29244,99
645,96	29038,15
646,15	28773,96
646,34	29541,95
646,53	29515,33
646,72	29128,26
646,91	29427,26
647,10	28859,98
647,29	29451,84
647,48	29167,17
647,67	29253,19
647,86	29136,45
648,05	29316,67
648,24	29226,56
648,43	29599,29
648,62	29136,45
648,81	29027,91
649,00	29226,56
649,19	28804,68
649,38	29118,02
649,57	29175,36
649,76	29742,65
649,95	29414,98
650,14	29322,82
650,33	29103,68
650,52	28937,80
650,71	29144,64
650,90	28948,04
651,09	29191,75
651,28	29513,28
651,47	29081,16
651,66	29265,47
651,85	29214,27
652,04	28925,51
652,23	29374,02
652,42	29001,29
652,61	29191,75
652,80	28993,09
652,99	29410,88
653,17	29398,59
653,36	29462,08
653,55	29349,44
653,74	29150,79
653,93	29015,62
654,12	29466,17
654,31	29367,87
654,50	29107,78
654,69	29365,82
654,88	29468,22
655,07	29699,64
655,26	29212,23
655,45	29335,10
655,64	29570,62
655,83	29189,70
656,02	28972,61
656,21	28958,28
656,39	29326,91
656,58	29115,97
656,77	29183,55
656,96	29570,62
657,15	29081,16
657,34	29460,03
657,53	29713,98
657,72	29353,54
657,91	29423,17
658,10	29529,66
658,29	29322,82
658,48	29206,08
658,67	29668,92
658,85	29277,76
659,04	28972,61
659,23	28872,26
659,42	29244,99
659,61	29660,73
659,80	29072,96
659,99	29500,99
660,18	28905,03
660,37	29558,33
660,56	29337,15
660,74	29435,45
660,93	29312,58
661,12	29357,63
661,31	29222,47
661,50	29384,26
661,69	29283,91
661,88	29052,48
662,07	29292,10
662,26	29419,07
662,44	29457,98
662,63	29320,77
662,82	29138,50
663,01	29062,72
663,20	29290,05
663,39	29300,29
663,58	29230,66
663,77	28532,30
663,95	29224,51
664,14	29249,09
664,33	29187,65
664,52	29054,53
664,71	28819,02
664,90	29109,83
665,09	29173,31
665,27	28524,11
665,46	29023,81
665,65	29136,45
665,84	28790,34
666,03	29120,07
666,22	29066,82
666,41	28786,25
666,59	29169,22
666,78	28841,54
666,97	29443,65
667,16	29169,22
667,35	28868,17
667,54	29257,28
667,72	28976,71
667,91	28857,93
668,10	28673,61
668,29	29128,26
668,48	28821,06
668,67	28728,91
668,85	29003,33
669,04	28966,47
669,23	28857,93
669,42	29267,52
669,61	29417,02
669,80	28610,12
669,98	29201,99
670,17	28745,29
670,36	28876,36
670,55	28472,91
670,74	28792,39
670,92	28622,41
671,11	28452,43
671,30	28726,86
671,49	28841,54
671,68	29251,14
671,86	28290,64
672,05	28907,08
672,24	28597,84
672,43	28823,11
672,62	28880,46
672,80	28835,40
672,99	28663,37
673,18	28472,91
673,37	28704,33
673,56	28603,98
673,74	28673,61
673,93	28321,36
674,12	28798,54
674,31	28628,56
674,50	28689,99
674,68	28397,13
674,87	28440,14
675,06	28722,76
675,25	28470,86
675,43	28595,79
675,62	28628,56
675,81	28757,58
676,00	28689,99
676,19	28769,86
676,37	28644,94
676,56	28120,66
676,75	28143,19
676,94	28583,50
677,12	28114,52
677,31	28245,58
677,50	28399,18
677,69	28272,21
677,87	28208,72
678,06	28321,36
678,25	28282,45
678,44	28223,06
678,62	28149,33
678,81	28270,16
679,00	28372,56
679,19	28012,12
679,37	28255,82
679,56	28167,76
679,75	28315,22
679,94	28104,28
680,12	28255,82
680,31	28020,31
680,50	28114,52
680,68	27596,38
680,87	28053,08
681,06	27919,96
681,25	28071,51
681,43	28014,16
681,62	27469,40
681,81	28081,75
682,00	27803,22
682,18	27833,94
682,37	27424,35
682,56	27580,00
682,74	27907,67
682,93	27696,73
683,12	27758,17
683,31	27735,64
683,49	27555,42
683,68	27883,09
683,87	27395,68
684,05	27743,83
684,24	27432,54
684,43	26928,74
684,61	27678,30
684,80	27305,57
684,99	27442,78
685,18	27407,97
685,36	27559,52
685,55	27651,67
685,74	27930,20
685,92	27346,53
686,11	27412,06
686,30	27096,67
686,48	27340,38
686,67	27211,36
686,86	27516,51
687,04	27362,91
687,23	27407,97
687,42	27254,37
687,60	27412,06
687,79	27493,98
687,98	27254,37
688,16	27326,05
688,35	27237,98
688,54	27194,98
688,72	27803,22
688,91	27489,88
689,10	27387,49
689,28	27410,01
689,47	27407,97
689,66	27237,98
689,84	27119,20
690,03	27534,94
690,22	27274,85
690,40	27254,37
690,59	27068,00
690,78	27063,91
690,96	27104,87
691,15	26885,73
691,34	27082,34
691,52	27063,91
691,71	26646,12
691,89	27139,68
692,08	26818,15
692,27	27057,76
692,45	26955,36
692,64	26539,63
692,83	26865,25
693,01	27242,08
693,20	27072,10
693,38	26863,21
693,57	26996,32
693,76	26781,29
693,94	26816,10
694,13	26957,41
694,32	26642,03
694,50	27090,53
694,69	26592,87
694,87	26809,96
695,06	26754,66
695,25	26658,41
695,43	26834,53
695,62	26889,83
695,80	26764,90
695,99	26828,39
696,18	26662,51
696,36	26541,68
696,55	26304,11
696,73	26383,98
696,92	26580,59
697,11	26482,28
697,29	26547,82
697,48	26486,38
697,66	26762,86
697,85	26166,90
698,04	26603,11
698,22	26461,80
698,41	26500,72
698,59	26318,45
698,78	26111,60
698,96	26211,95
699,15	26383,98
699,34	26420,84
699,52	26496,62
699,71	26347,12
699,89	26691,18
700,08	26271,34
700,26	26470,00
700,45	26287,73
700,64	26519,15
700,82	26418,80
701,01	25939,57
701,19	26271,34
701,38	25843,32
701,56	26039,92
701,75	26289,77
701,93	25943,67
702,12	25783,93
702,31	26037,87
702,49	25939,57
702,68	26408,56
702,86	26328,69
703,05	26175,09
703,23	25763,45
703,42	26324,59
703,60	25974,39
703,79	26220,14
703,97	26277,49
704,16	26216,05
704,34	25818,74
704,53	26293,87
704,72	26080,88
704,90	25849,46
705,09	25767,54
705,27	25837,17
705,46	25966,20
705,64	25802,36
705,83	25812,60
706,01	25966,20
706,20	25636,47
706,38	26017,40
706,57	25771,64
706,75	25822,84
706,94	25788,02
707,12	25720,44
707,31	25947,76
707,49	25904,76
707,68	25628,28
707,86	26017,40
708,05	26046,07
708,23	25480,83
708,42	25493,12
708,60	25474,68
708,79	25818,74
708,97	25251,45
709,16	25419,39
709,34	25448,06
709,53	25587,32
709,71	25570,94
709,90	25607,80
710,08	25876,09
710,27	25259,65
710,45	25538,17
710,64	25241,21
710,82	25294,46
711,00	25529,98
711,19	25497,21
711,37	24974,98
711,56	25273,98
711,74	25378,43
711,93	25644,66
712,11	25300,61
712,30	25476,73
712,48	25247,36
712,67	25273,98
712,85	25470,59
713,04	25345,66
713,22	25097,86
713,40	25030,27
713,59	25443,96
713,77	24999,55
713,96	25226,88
714,14	25343,61
714,33	25167,49
714,51	25267,84
714,70	24819,33
714,88	24944,26
715,06	25124,48
715,25	25116,29
715,43	25011,84
715,62	24901,25
715,80	25171,58
715,99	24700,55
716,17	24753,80
716,35	24936,07
716,54	24925,83
716,72	25024,13
716,91	25020,03
717,09	25126,53
717,28	25165,44
717,46	25050,75
717,64	25007,75
717,83	24778,37
718,01	24528,52
718,20	24839,81
718,38	24798,85
718,56	24297,10
718,75	25114,24
718,93	24831,62
719,12	24864,39
719,30	24542,86
719,48	24381,07
719,67	24708,74
719,85	24374,92
720,04	24565,39
720,22	24544,91
720,40	24673,93
720,59	24569,48
720,77	24288,91
720,96	24731,27
721,14	24127,12
721,32	24745,61
721,51	24632,97
721,69	24635,02
721,87	24534,67
722,06	24481,42
722,24	24172,18
722,43	24434,32
722,61	24172,18
722,79	24376,97
722,98	24069,78
723,16	24714,89
723,34	24471,18
723,53	24409,74
723,71	24112,78
723,90	24600,20
724,08	24589,96
724,26	24370,83
724,45	24094,35
724,63	23987,86
724,81	24147,60
725,00	24387,21
725,18	24155,79
725,36	24284,81
725,55	23770,77
725,73	24315,53
725,91	24112,78
726,10	23891,60
726,28	24147,60
726,46	24473,23
726,65	23828,12
726,83	23854,74
727,01	24206,99
727,20	24049,30
727,38	24032,91
727,56	23817,88
727,75	23967,38
727,93	23803,54
728,11	23819,92
728,30	23660,18
728,48	24065,68
728,66	23770,77
728,85	23885,46
729,03	23910,04
729,21	24077,97
729,40	23922,32
729,58	24053,39
729,76	23893,65
729,94	23600,79
730,13	23647,90
730,31	23666,33
730,49	23774,87
730,68	23891,60
730,86	23934,61
731,04	23750,29
731,23	23352,99
731,41	23549,59
731,59	23682,71
731,77	23754,39
731,96	23502,49
732,14	23989,91
732,32	23789,20
732,51	23271,07
732,69	23535,26
732,87	23570,07
733,05	23713,43
733,24	23590,55
733,42	23600,79
733,60	23479,96
733,79	23504,54
733,97	23510,68
734,15	23631,51
734,33	23604,89
734,52	23256,73
734,70	23256,73
734,88	23312,03
735,06	23000,74
735,25	23471,77
735,43	23185,05
735,61	23166,62
735,79	23576,22
735,98	23150,24
736,16	23525,02
736,34	23293,60
736,52	23107,23
736,71	23123,62
736,89	23119,52
737,07	23367,32
737,25	23123,62
737,44	22802,08
737,62	23242,40
737,80	23328,41
737,98	22947,49
738,17	22861,48
738,35	22904,48
738,53	23111,33
738,71	22976,16
738,89	23193,25
739,08	22683,30
739,26	22922,91
739,44	22992,55
739,62	22861,48
739,81	22716,07
739,99	22929,06
740,17	22959,78
740,35	22724,26
740,53	22771,36
740,72	22437,55
740,90	22728,36
741,08	22703,78
741,26	22599,34
741,44	22480,55
741,63	22787,75
741,81	22793,89
741,99	22339,24
742,17	22728,36
742,35	22775,46
742,54	22638,25
742,72	22716,07
742,90	22333,10
743,08	22322,86
743,26	22525,61
743,45	22156,97
743,63	22691,49
743,81	22329,00
743,99	22296,24
744,17	22255,28
744,35	22202,03
744,54	21937,84
744,72	22220,46
744,90	21925,55
745,08	21958,32
745,26	22146,73
745,44	22173,36
745,63	22075,06
745,81	22001,33
745,99	21753,52
746,17	21552,82
746,35	21372,60
746,53	21763,76
746,72	21520,06
746,90	21550,78
747,08	21495,48
747,26	21290,68
747,44	21767,86
747,62	21522,10
747,81	21391,03
747,99	21063,36
748,17	20932,29
748,35	21341,88
748,53	21384,89
748,71	21386,94
748,89	21362,36
749,07	21300,92
749,26	21393,08
749,44	20874,95
749,62	21001,92
749,80	21395,13
749,98	21272,25
750,16	21051,07
750,34	21231,29
750,52	21227,20
750,71	20797,12
750,89	21219,00
751,07	21272,25
751,25	21274,30
751,43	21008,06
751,61	21268,16
751,79	20963,01
751,97	21081,79
752,15	20960,96
752,34	21182,14
752,52	21231,29
752,70	21094,08
752,88	21354,17
753,06	21161,66
753,24	20836,03
753,42	21036,74
753,60	20991,68
753,78	21065,41
753,96	21485,24
754,15	21456,57
754,33	21569,21
754,51	21565,11
754,69	21669,56
754,87	21620,41
755,05	21626,55
755,23	21724,85
755,41	21651,13
755,59	21948,08
755,77	21759,67
755,95	21993,14
756,13	21946,03
756,31	22083,25
756,50	22093,49
756,68	22214,32
756,86	22283,95
757,04	22410,92
757,22	22423,21
757,40	22582,95
757,58	22673,06
757,76	22943,39
757,94	22779,56
758,12	22738,60
758,30	22806,18
758,48	22853,28
758,66	22843,04
758,84	23008,93
759,02	23142,05
759,20	23221,92
759,38	23033,50
759,56	23191,20
759,74	23236,25
759,92	23324,32
760,10	23467,67
760,28	23479,96
760,47	23701,14
760,65	23996,05
760,83	23389,85
761,01	23649,94
761,19	23680,66
761,37	23934,61
761,55	24032,91
761,73	23926,42
761,91	24192,65
762,09	23793,30
762,27	24274,57
762,45	24295,05
762,63	24223,37
762,81	24381,07
762,99	24270,48
763,17	24422,03
763,35	24604,30
763,53	24360,59
763,71	24376,97
763,89	24675,98
764,07	24589,96
764,25	24379,02
764,43	24555,15
764,61	24540,81
764,79	24497,80
764,97	24462,99
765,15	24749,70
765,33	24522,38
765,51	24430,22
765,69	24522,38
765,87	24460,94
766,05	23991,95
766,23	24123,02
766,41	23809,68
766,58	24327,82
766,76	24321,68
766,94	24348,30
767,12	24182,42
767,30	24235,66
767,48	24155,79
767,66	24059,54
767,84	24198,80
768,02	24256,14
768,20	24057,49
768,38	23924,37
768,56	23867,03
768,74	24077,97
768,92	23772,82
769,10	23766,68
769,28	23664,28
769,46	23682,71
769,64	23674,52
769,82	23627,42
770,00	23619,22
770,18	23348,89
770,36	23699,09
770,53	23463,58
770,71	23008,93
770,89	23191,20
771,07	23066,27
771,25	23058,08
771,43	22845,09
771,61	22587,05
771,79	22912,67
771,97	22640,29
772,15	22691,49
772,33	22562,47
772,51	22179,50
772,69	22075,06
772,86	22365,87
773,04	22437,55
773,22	22312,62
773,40	22134,45
773,58	21952,18
773,76	21937,84
773,94	21829,30
774,12	21921,46
774,30	21667,51
774,48	21868,21
774,65	21544,63
774,83	21622,45
775,01	21771,96
775,19	21233,34
775,37	21384,89
775,55	21161,66
775,73	21120,70
775,91	20922,05
776,09	21059,26
776,26	20885,19
776,44	20727,49
776,62	20854,47
776,80	20645,57
776,98	20588,23
777,16	20430,54
777,34	20276,94
777,52	20088,53
777,69	20412,10
777,87	20422,34
778,05	20203,21
778,23	19793,62
778,41	19996,37
778,59	19986,13
778,77	19601,11
778,94	20033,23
779,12	19816,15
779,30	19488,47
779,48	19506,90
779,66	19437,27
779,84	19414,74
780,02	19449,56
780,19	19252,95
780,37	19482,33
780,55	19199,71
780,73	19128,03
780,91	19437,27
781,09	18937,57
781,26	19248,86
781,44	19039,97
781,62	18562,79
781,80	18822,88
781,98	18874,08
782,16	18792,16
782,33	18716,39
782,51	18601,70
782,69	18536,17
782,87	18464,49
783,05	18437,86
783,22	18396,90
783,40	18263,79
783,58	18487,01
783,76	18206,44
783,94	18192,11
784,12	18368,23
784,29	18067,18
784,47	17800,94
784,65	18106,09
784,83	18061,04
785,01	17733,36
785,18	17921,77
785,36	17815,28
785,54	17751,79
785,72	17858,29
785,89	17471,22
786,07	17667,83
786,25	17358,58
786,43	17506,04
786,61	17323,77
786,78	17295,10
786,96	17135,35
787,14	17450,74
787,32	16914,17
787,49	17211,13
787,67	16961,28
787,85	16955,13
788,03	16795,39
788,21	16750,34
788,38	16926,46
788,56	16824,06
788,74	16828,16
788,92	16924,41
789,09	16529,16
789,27	16523,01
789,45	16471,81
789,63	16537,35
789,80	16463,62
789,98	16389,89
790,16	16377,61
790,34	16385,80
790,51	16410,37
790,69	16410,37
790,87	16111,37
791,05	16226,06
791,22	16189,19
791,40	15828,75
791,58	15982,35
791,76	15925,00
791,93	16146,19
792,11	16129,80
792,29	15865,61
792,46	15621,91
792,64	15767,31
792,82	15554,32
793,00	15503,12
793,17	15652,63
793,35	15562,51
793,53	15720,21
793,70	15834,89
793,88	15343,38
794,06	15292,18
794,24	15490,84
794,41	15275,80
794,59	15292,18
794,77	15435,54
794,94	15345,43
795,12	15327,00
795,30	15101,72
795,47	14708,51
795,65	14989,08
795,83	15099,67
796,01	14966,56
796,18	15130,39
796,36	14804,77
796,54	14788,38
796,71	14800,67
796,89	14898,97
797,07	14792,48
797,24	14737,18
797,42	14743,33
797,60	14694,18
797,77	14726,94
797,95	14458,66
798,13	14432,04
798,30	14481,19
798,48	14317,35
798,66	14452,52
798,83	14384,93
799,01	14368,55
799,19	14456,61
799,36	14378,79
799,54	14010,15
799,72	14137,13
799,89	14073,64
800,07	14284,58
800,25	13731,63
800,42	13956,91
800,60	13715,25
800,78	13817,65
800,95	13993,77
801,13	14022,44
801,30	13539,12
801,48	13547,31
801,66	13680,43
801,83	13672,24
802,01	13596,46
802,19	13389,62
802,36	13438,77
802,54	13408,05
802,72	13729,58
802,89	13745,97
803,07	13449,01
803,24	13418,29
803,42	13217,59
803,60	13330,23
803,77	13344,56
803,95	13444,91
804,12	13317,94
804,30	13121,34
804,48	13268,79
804,65	12900,16
804,83	13049,66
805,01	13160,25
805,18	13229,88
805,36	12912,44
805,53	12781,37
805,71	12736,32
805,88	12982,07
806,06	12943,16
806,24	12810,04
806,41	12746,56
806,59	12779,32
806,76	12672,83
806,94	12916,54
807,12	12775,23
807,29	12658,49
807,47	12539,71
807,64	12982,07
807,82	12822,33
807,99	12343,11
808,17	12642,11
808,35	12654,40
808,52	12539,71
808,70	12457,79
808,87	12375,88
809,05	12281,67
809,22	12459,84
809,40	12392,26
809,58	12255,04
809,75	12320,58
809,93	12195,65
810,10	12212,04
810,28	12126,02
810,45	12056,39
810,63	12154,69
810,80	11925,32
810,98	12138,31
811,15	12023,62
811,33	12076,87
811,51	11960,14
811,68	11974,47
811,86	11941,71
812,03	11810,64
812,21	11900,75
812,38	11689,81
812,56	11921,23
812,73	11798,35
812,91	11894,60
813,08	11890,51
813,26	11837,26
813,43	11749,20
813,61	11679,57
813,78	11769,68
813,96	11622,22
814,13	11466,58
814,31	11638,61
814,48	11425,62
814,66	11595,60
814,83	11560,78
815,01	11308,88
815,18	11401,04
815,36	11302,74
815,53	11450,19
815,71	11419,47
815,88	11376,47
816,06	11286,36
816,23	11446,10
816,41	11466,58
816,58	11140,95
816,76	11544,40
816,93	11163,48
817,11	11331,41
817,28	11106,13
817,46	11204,44
817,63	11161,43
817,81	11007,83
817,98	11097,94
818,16	11048,79
818,33	11106,13
818,51	10995,54
818,68	10880,86
818,86	11016,02
819,03	10962,78
819,21	10794,84
819,38	10868,57
819,55	10893,15
819,73	11018,07
819,90	10692,44
820,08	10911,58
820,25	10921,82
820,43	10753,88
820,60	10628,96
820,78	10696,54
820,95	10725,21
821,12	10549,09
821,30	10495,84
821,47	10583,90
821,65	10696,54
821,82	10428,26
822,00	10569,57
822,17	10532,70
822,35	10493,79
822,52	10618,72
822,69	10461,02
822,87	10407,78
823,04	10467,17
823,22	10348,39
823,39	10264,42
823,56	10377,06
823,74	10418,02
823,91	10123,11
824,09	10307,43
824,26	10084,20
824,44	10114,92
824,61	10262,37
824,78	10153,83
824,96	10155,88
825,13	10303,33
825,31	10073,96
825,48	10084,20
825,65	10188,64
825,83	9963,37
826,00	10008,42
826,18	9885,55
826,35	9983,85
826,52	10098,53
826,70	9738,09
826,87	10049,38
827,04	9930,60
827,22	9627,50
827,39	9865,07
827,57	9721,71
827,74	9779,05
827,91	9582,45
828,09	9787,24
828,26	9707,37
828,43	9705,32
828,61	9574,25
828,78	9674,60
828,96	9656,17
829,13	9672,56
829,30	9658,22
829,48	9527,15
829,65	9705,32
829,82	9353,07
830,00	9475,95
830,17	9420,66
830,34	9373,55
830,52	9353,07
830,69	9512,81
830,86	9623,41
831,04	9295,73
831,21	9410,42
831,38	9434,99
831,56	9238,39
831,73	9420,66
831,90	9285,49
832,08	9332,59
832,25	9312,11
832,42	9459,57
832,60	9172,85
832,77	9152,37
832,94	9189,24
833,12	9228,15
833,29	9135,99
833,46	9115,51
833,64	9215,86
833,81	9070,45
833,98	9267,06
834,16	9058,17
834,33	9140,08
834,50	8812,41
834,67	9025,40
834,85	8951,67
835,02	8951,67
835,19	8918,90
835,37	8849,27
835,54	8832,89
835,71	8951,67
835,89	8681,34
836,06	8966,01
836,23	8738,68
836,40	8779,64
836,58	8992,63
836,75	8963,96
836,92	8800,12
837,10	8714,11
837,27	8740,73
837,44	8822,65
837,61	8820,60
837,79	8656,76
837,96	8599,42
838,13	8660,86
838,30	8626,04
838,48	8411,01
838,65	8652,67
838,82	8507,26
838,99	8468,35
839,17	8550,27
839,34	8599,42
839,51	8609,66
839,69	8312,71
839,86	8611,71
840,03	8486,78
840,20	8425,34
840,37	8456,06
840,55	8378,24
840,72	8288,13
840,89	8488,83
841,06	8353,66
841,24	8304,51
841,41	8128,39
841,58	8093,57
841,75	8398,72
841,93	8191,88
842,10	8163,20
842,27	8163,20
842,44	8009,61
842,62	8247,17
842,79	8263,55
842,96	8091,52
843,13	8275,84
843,30	8349,57
843,48	8071,04
843,65	8214,40
843,82	8249,22
843,99	7954,31
844,16	8038,28
844,34	7896,97
844,51	8019,85
844,68	8066,95
844,85	7882,63
845,02	7935,88
845,20	7821,19
845,37	7944,07
845,54	7739,27
845,71	7968,65
845,88	7942,02
846,06	7874,44
846,23	7686,03
846,40	7796,62
846,57	7747,47
846,74	7894,92
846,91	7640,97
847,09	7677,83
847,26	7872,39
847,43	7796,62
847,60	7806,86
847,77	7632,78
847,94	7526,29
848,12	7544,72
848,29	7614,35
848,46	7595,92
848,63	7526,29
848,80	7509,90
848,97	7571,34
849,15	7610,25
849,32	7321,49
849,49	7493,52
849,66	7436,17
849,83	7514,00
850,00	7307,15
850,17	7200,66
850,35	7374,74
850,52	7493,52
850,69	7477,13
850,86	7288,72
851,03	7354,26
851,20	7382,93
851,37	6981,53
851,55	7182,23
851,72	7419,79
851,89	7391,12
852,06	7143,32
852,23	7167,89
852,40	7231,38
852,57	7149,46
852,74	7149,46
852,92	7116,69
853,09	7028,63
853,26	7042,96
853,43	7006,10
853,60	7182,23
853,77	7141,27
853,94	6911,89
854,11	6952,85
854,28	7430,03
854,45	6883,22
854,63	6956,95
854,80	7075,73
854,97	7028,63
855,14	6969,24
855,31	6987,67
855,48	6838,17
855,65	6725,53
855,82	7010,20
855,99	6838,17
856,16	7059,35
856,33	6993,81
856,50	6741,91
856,68	6727,58
856,85	6834,07
857,02	6866,84
857,19	6739,87
857,36	6709,15
857,53	6756,25
857,70	6629,27
857,87	6733,72
858,04	6582,17
858,21	6649,75
858,38	6576,03
858,55	6748,06
858,72	6561,69
858,89	6690,71
859,06	6774,68
859,23	6637,47
859,40	6619,04
859,58	6502,30
859,75	6256,54
859,92	6592,41
860,09	6555,55
860,26	6576,03
860,43	6526,88
860,60	6553,50
860,77	6406,05
860,94	6340,51
861,11	6408,09
861,28	6268,83
861,45	6547,36
861,62	6363,04
861,79	6358,94
861,96	6356,90
862,13	6215,59
862,30	6182,82
862,47	6231,97
862,64	6518,68
862,81	6258,59
862,98	6199,20
863,15	6313,89
863,32	6240,16
863,49	6305,70
863,66	6166,43
863,83	6152,10
864,00	6092,71
864,17	6215,59
864,34	5978,02
864,51	6256,54
864,68	6217,63
864,85	6051,75
865,02	6021,03
865,19	6223,78
865,36	5978,02
865,53	6021,03
865,70	5998,50
865,87	6018,98
866,04	5898,15
866,21	6051,75
866,38	6039,46
866,55	5879,72
866,72	5971,88
866,89	5980,07
867,06	5965,73
867,23	5775,27
867,40	5855,14
867,57	5801,90
867,73	5740,46
867,90	5955,49
868,07	5971,88
868,24	5740,46
868,41	5857,19
868,58	5857,19
868,75	5691,31
868,92	5736,36
869,09	5588,91
869,26	5642,15
869,43	5816,23
869,60	5576,62
869,77	5515,18
869,94	5687,21
870,11	5572,52
870,28	5652,39
870,45	5683,11
870,61	5707,69
870,78	5482,41
870,95	5613,48
871,12	5568,43
871,29	5707,69
871,46	5611,43
871,63	5593,00
871,80	5519,28
871,97	5638,06
872,14	5539,76
872,31	5611,43
872,47	5420,97
872,64	5447,60
872,81	5369,77
872,98	5461,93
873,15	5326,77
873,32	5535,66
873,49	5425,07
873,66	5373,87
873,83	5240,75
874,00	5355,44
874,16	5289,90
874,33	5306,29
874,50	5298,10
874,67	5167,03
874,84	5052,34
875,01	5234,61
875,18	5185,46
875,35	5105,59
875,51	5150,64
875,68	5240,75
875,85	5150,64
876,02	5150,64
876,19	5162,93
876,36	5207,98
876,53	4995,00
876,69	5068,72
876,86	5126,07
877,03	5111,73
877,20	5142,45
877,37	5062,58
877,54	5064,63
877,71	5070,77
877,87	5052,34
878,04	5068,72
878,21	4995,00
878,38	4972,47
878,55	5081,01
878,72	5117,87
878,88	4820,92
879,05	5126,07
879,22	4925,36
879,39	5056,43
879,56	4954,04
879,73	5060,53
879,89	4755,38
880,06	4970,42
880,23	4929,46
880,40	4929,46
880,57	4839,35
880,74	4835,25
880,90	4677,56
881,07	4634,55
881,24	4827,06
881,41	4652,98
881,58	4693,94
881,74	4749,24
881,91	4724,66
882,08	4652,98
882,25	4677,56
882,42	4642,75
882,58	4913,08
882,75	4579,26
882,92	4693,94
883,09	4546,49
883,26	4710,33
883,42	4644,79
883,59	4620,22
883,76	4448,19
883,93	4487,10
884,09	4505,53
884,26	4642,75
884,43	4593,59
884,60	4519,87
884,77	4667,32
884,93	4409,28
885,10	4413,37
885,27	4644,79
885,44	4550,59
885,60	4495,29
885,77	4478,91
885,94	4546,49
886,11	4388,80
886,27	4571,07
886,44	4503,48
886,61	4517,82
886,78	4431,80
886,94	4245,44
887,11	4409,28
887,28	4364,22
887,45	4421,56
887,61	4487,10
887,78	4274,11
887,95	4315,07
888,12	4315,07
888,28	4196,29
888,45	4200,38
888,62	4259,78
888,78	4210,62
888,95	4421,56
889,12	4147,14
889,29	4323,26
889,45	4136,90
889,62	4265,92
889,79	4233,15
889,95	4224,96
890,12	4249,54
890,29	4184,00
890,46	4102,08
890,62	4147,14
>>>>>End Processed Spectral Data<<<<<
