SpectraSuite Data File
++++++++++++++++++++++++++++++++++++
Date: Fri Sep 15 20:20:56 BRT 2023
User: Alunos
Dark Spectrum Present: No
Reference Spectrum Present: No
Number of Sampled Component Spectra: 1
Spectrometers: USB4F07961
Integration Time (usec): 100000 (USB4F07961)
Spectra Averaged: 1 (USB4F07961)
Boxcar Smoothing: 0 (USB4F07961)
Correct for Electrical Dark: No (USB4F07961)
Strobe/Lamp Enabled: No (USB4F07961)
Correct for Detector Non-linearity: No (USB4F07961)
Correct for Stray Light: No (USB4F07961)
Number of Pixels in Processed Spectrum: 3648
>>>>>Begin Processed Spectral Data<<<<<
178,13	1345,52
178,35	1345,52
178,57	1345,52
178,78	1296,36
179,00	1284,08
179,22	1486,83
179,44	1443,82
179,66	1519,59
179,87	1513,45
180,09	1492,97
180,31	1562,60
180,53	1488,87
180,75	1435,63
180,96	1402,86
181,18	1538,02
181,40	1390,57
181,62	1548,26
181,84	1390,57
182,05	1564,65
182,27	1484,78
182,49	1499,11
182,71	1423,34
182,92	1529,83
183,14	1488,87
183,36	1513,45
183,58	1529,83
183,80	1607,66
184,01	1411,05
184,23	1542,12
184,45	1509,35
184,67	1613,80
184,89	1460,20
185,10	1599,46
185,32	1484,78
185,54	1566,70
185,76	1523,69
185,97	1517,54
186,19	1581,03
186,41	1538,02
186,63	1515,50
186,84	1505,26
187,06	1511,40
187,28	1603,56
187,50	1480,68
187,72	1599,46
187,93	1456,11
188,15	1423,34
188,37	1497,07
188,59	1484,78
188,80	1505,26
189,02	1441,77
189,24	1452,01
189,46	1595,37
189,67	1587,18
189,89	1484,78
190,11	1517,54
190,33	1595,37
190,54	1603,56
190,76	1570,79
190,98	1476,59
191,20	1423,34
191,41	1542,12
191,63	1640,42
191,85	1521,64
192,07	1521,64
192,28	1505,26
192,50	1562,60
192,72	1523,69
192,94	1646,57
193,15	1531,88
193,37	1611,75
193,59	1574,89
193,81	1531,88
194,02	1542,12
194,24	1472,49
194,46	1482,73
194,67	1529,83
194,89	1404,91
195,11	1564,65
195,33	1562,60
195,54	1570,79
195,76	1568,74
195,98	1523,69
196,20	1505,26
196,41	1513,45
196,63	1603,56
196,85	1578,98
197,06	1484,78
197,28	1513,45
197,50	1521,64
197,72	1488,87
197,93	1458,15
198,15	1566,70
198,37	1484,78
198,58	1538,02
198,80	1538,02
199,02	1581,03
199,24	1472,49
199,45	1507,30
199,67	1492,97
199,89	1445,87
200,10	1521,64
200,32	1466,35
200,54	1390,57
200,76	1531,88
200,97	1578,98
201,19	1431,53
201,41	1501,16
201,62	1507,30
201,84	1492,97
202,06	1564,65
202,28	1529,83
202,49	1538,02
202,71	1644,52
202,93	1570,79
203,14	1497,07
203,36	1595,37
203,58	1415,15
203,79	1497,07
204,01	1521,64
204,23	1499,11
204,44	1562,60
204,66	1529,83
204,88	1554,41
205,10	1482,73
205,31	1472,49
205,53	1556,46
205,75	1497,07
205,96	1488,87
206,18	1507,30
206,40	1482,73
206,61	1370,09
206,83	1439,72
207,05	1472,49
207,26	1546,22
207,48	1492,97
207,70	1458,15
207,91	1581,03
208,13	1529,83
208,35	1521,64
208,56	1456,11
208,78	1482,73
209,00	1482,73
209,21	1542,12
209,43	1529,83
209,65	1497,07
209,86	1542,12
210,08	1572,84
210,30	1578,98
210,51	1595,37
210,73	1480,68
210,95	1505,26
211,16	1492,97
211,38	1447,91
211,60	1447,91
211,81	1554,41
212,03	1488,87
212,25	1603,56
212,46	1449,96
212,68	1521,64
212,90	1533,93
213,11	1538,02
213,33	1581,03
213,55	1533,93
213,76	1521,64
213,98	1550,31
214,20	1464,30
214,41	1476,59
214,63	1546,22
214,84	1490,92
215,06	1507,30
215,28	1564,65
215,49	1554,41
215,71	1558,50
215,93	1617,90
216,14	1488,87
216,36	1523,69
216,58	1542,12
216,79	1531,88
217,01	1531,88
217,22	1525,74
217,44	1730,53
217,66	1484,78
217,87	1597,42
218,09	1480,68
218,31	1472,49
218,52	1562,60
218,74	1529,83
218,95	1554,41
219,17	1464,30
219,39	1480,68
219,60	1603,56
219,82	1456,11
220,04	1570,79
220,25	1546,22
220,47	1529,83
220,68	1533,93
220,90	1546,22
221,12	1531,88
221,33	1492,97
221,55	1546,22
221,77	1495,02
221,98	1517,54
222,20	1538,02
222,41	1595,37
222,63	1529,83
222,85	1480,68
223,06	1472,49
223,28	1572,84
223,49	1488,87
223,71	1495,02
223,93	1521,64
224,14	1497,07
224,36	1595,37
224,57	1507,30
224,79	1497,07
225,01	1488,87
225,22	1562,60
225,44	1427,43
225,65	1497,07
225,87	1546,22
226,09	1449,96
226,30	1615,85
226,52	1513,45
226,73	1398,76
226,95	1648,61
227,17	1546,22
227,38	1460,20
227,60	1583,08
227,81	1521,64
228,03	1482,73
228,24	1611,75
228,46	1531,88
228,68	1531,88
228,89	1505,26
229,11	1427,43
229,32	1540,07
229,54	1433,58
229,75	1611,75
229,97	1447,91
230,19	1466,35
230,40	1488,87
230,62	1490,92
230,83	1507,30
231,05	1525,74
231,26	1472,49
231,48	1521,64
231,70	1605,61
231,91	1474,54
232,13	1611,75
232,34	1562,60
232,56	1501,16
232,77	1578,98
232,99	1550,31
233,21	1710,05
233,42	1531,88
233,64	1621,99
233,85	1439,72
234,07	1540,07
234,28	1546,22
234,50	1570,79
234,71	1525,74
234,93	1521,64
235,15	1488,87
235,36	1505,26
235,58	1488,87
235,79	1474,54
236,01	1474,54
236,22	1554,41
236,44	1673,19
236,65	1513,45
236,87	1558,50
237,08	1546,22
237,30	1533,93
237,52	1538,02
237,73	1456,11
237,95	1538,02
238,16	1409,00
238,38	1587,18
238,59	1490,92
238,81	1611,75
239,02	1550,31
239,24	1513,45
239,45	1529,83
239,67	1521,64
239,88	1521,64
240,10	1513,45
240,31	1480,68
240,53	1452,01
240,74	1456,11
240,96	1603,56
241,18	1574,89
241,39	1447,91
241,61	1564,65
241,82	1490,92
242,04	1497,07
242,25	1570,79
242,47	1468,39
242,68	1492,97
242,90	1488,87
243,11	1533,93
243,33	1505,26
243,54	1607,66
243,76	1439,72
243,97	1548,26
244,19	1435,63
244,40	1497,07
244,62	1490,92
244,83	1464,30
245,05	1468,39
245,26	1460,20
245,48	1495,02
245,69	1529,83
245,91	1456,11
246,12	1488,87
246,34	1581,03
246,55	1480,68
246,77	1439,72
246,98	1538,02
247,20	1458,15
247,41	1558,50
247,63	1468,39
247,84	1554,41
248,06	1597,42
248,27	1515,50
248,49	1480,68
248,70	1488,87
248,92	1456,11
249,13	1458,15
249,35	1538,02
249,56	1480,68
249,78	1454,06
249,99	1513,45
250,21	1546,22
250,42	1517,54
250,64	1581,03
250,85	1591,27
251,06	1605,61
251,28	1562,60
251,49	1507,30
251,71	1497,07
251,92	1480,68
252,14	1538,02
252,35	1449,96
252,57	1566,70
252,78	1505,26
253,00	1464,30
253,21	1456,11
253,43	1482,73
253,64	1509,35
253,86	1564,65
254,07	1480,68
254,28	1443,82
254,50	1597,42
254,71	1583,08
254,93	1468,39
255,14	1480,68
255,36	1562,60
255,57	1490,92
255,79	1482,73
256,00	1578,98
256,22	1497,07
256,43	1581,03
256,64	1581,03
256,86	1599,46
257,07	1406,95
257,29	1531,88
257,50	1515,50
257,72	1464,30
257,93	1488,87
258,15	1603,56
258,36	1439,72
258,57	1482,73
258,79	1560,55
259,00	1578,98
259,22	1466,35
259,43	1583,08
259,65	1521,64
259,86	1501,16
260,08	1439,72
260,29	1734,63
260,50	1546,22
260,72	1882,08
260,93	1472,49
261,15	1501,16
261,36	1452,01
261,58	1525,74
261,79	1548,26
262,00	1556,46
262,22	1648,61
262,43	1587,18
262,65	1529,83
262,86	1497,07
263,07	1574,89
263,29	1550,31
263,50	1593,32
263,72	1523,69
263,93	1513,45
264,15	1570,79
264,36	1456,11
264,57	1447,91
264,79	1644,52
265,00	1517,54
265,22	1507,30
265,43	1474,54
265,64	1482,73
265,86	1480,68
266,07	1513,45
266,29	1521,64
266,50	1521,64
266,71	1523,69
266,93	1521,64
267,14	1554,41
267,36	1449,96
267,57	1525,74
267,78	1538,02
268,00	1603,56
268,21	1644,52
268,43	1505,26
268,64	1497,07
268,85	1427,43
269,07	1538,02
269,28	1554,41
269,50	1476,59
269,71	1439,72
269,92	1513,45
270,14	1525,74
270,35	1484,78
270,56	1581,03
270,78	1497,07
270,99	1499,11
271,21	1501,16
271,42	1521,64
271,63	1546,22
271,85	1546,22
272,06	1488,87
272,27	1488,87
272,49	1535,98
272,70	1564,65
272,92	1538,02
273,13	1572,84
273,34	1550,31
273,56	1497,07
273,77	1607,66
273,98	1556,46
274,20	1527,78
274,41	1562,60
274,63	1482,73
274,84	1394,67
275,05	1546,22
275,27	1425,39
275,48	1566,70
275,69	1546,22
275,91	1525,74
276,12	1531,88
276,33	1458,15
276,55	1546,22
276,76	1513,45
276,97	1636,33
277,19	1523,69
277,40	1513,45
277,61	1546,22
277,83	1490,92
278,04	1529,83
278,26	1521,64
278,47	1546,22
278,68	1572,84
278,90	1447,91
279,11	1439,72
279,32	1529,83
279,54	1648,61
279,75	1578,98
279,96	1619,94
280,18	1581,03
280,39	1587,18
280,60	1546,22
280,82	1570,79
281,03	1464,30
281,24	1636,33
281,46	1531,88
281,67	1472,49
281,88	1533,93
282,10	1529,83
282,31	1490,92
282,52	1578,98
282,74	1415,15
282,95	1636,33
283,16	1499,11
283,37	1515,50
283,59	1439,72
283,80	1509,35
284,01	1646,57
284,23	1423,34
284,44	1564,65
284,65	1685,48
284,87	1529,83
285,08	1583,08
285,29	1550,31
285,51	1613,80
285,72	1523,69
285,93	1603,56
286,15	1499,11
286,36	1490,92
286,57	1554,41
286,78	1529,83
287,00	1456,11
287,21	1406,95
287,42	1521,64
287,64	1488,87
287,85	1630,18
288,06	1548,26
288,28	1554,41
288,49	1431,53
288,70	1521,64
288,91	1564,65
289,13	1595,37
289,34	1574,89
289,55	1466,35
289,77	1456,11
289,98	1538,02
290,19	1591,27
290,40	1492,97
290,62	1521,64
290,83	1431,53
291,04	1488,87
291,26	1499,11
291,47	1499,11
291,68	1597,42
291,89	1452,01
292,11	1632,23
292,32	1529,83
292,53	1628,14
292,74	1578,98
292,96	1466,35
293,17	1587,18
293,38	1515,50
293,60	1564,65
293,81	1480,68
294,02	1562,60
294,23	1578,98
294,45	1513,45
294,66	1542,12
294,87	1605,61
295,08	1488,87
295,30	1603,56
295,51	1505,26
295,72	1546,22
295,93	1538,02
296,15	1619,94
296,36	1484,78
296,57	1611,75
296,78	1587,18
297,00	1480,68
297,21	1501,16
297,42	1597,42
297,63	1406,95
297,85	1603,56
298,06	1529,83
298,27	1542,12
298,48	1554,41
298,70	1587,18
298,91	1679,33
299,12	1497,07
299,33	1499,11
299,55	1546,22
299,76	1447,91
299,97	1578,98
300,18	1505,26
300,40	1466,35
300,61	1523,69
300,82	1613,80
301,03	1538,02
301,24	1542,12
301,46	1462,25
301,67	1523,69
301,88	1458,15
302,09	1603,56
302,31	1458,15
302,52	1456,11
302,73	1636,33
302,94	1538,02
303,15	1513,45
303,37	1435,63
303,58	1544,17
303,79	1662,95
304,00	1554,41
304,22	1488,87
304,43	1587,18
304,64	1521,64
304,85	1499,11
305,06	1597,42
305,28	1525,74
305,49	1572,84
305,70	1546,22
305,91	1529,83
306,12	1605,61
306,34	1488,87
306,55	1476,59
306,76	1505,26
306,97	1665,00
307,18	1505,26
307,40	1540,07
307,61	1492,97
307,82	1546,22
308,03	1613,80
308,24	1509,35
308,46	1460,20
308,67	1490,92
308,88	1486,83
309,09	1611,75
309,30	1542,12
309,52	1472,49
309,73	1538,02
309,94	1449,96
310,15	1431,53
310,36	1497,07
310,57	1566,70
310,79	1564,65
311,00	1482,73
311,21	1513,45
311,42	1552,36
311,63	1523,69
311,85	1482,73
312,06	1538,02
312,27	1587,18
312,48	1513,45
312,69	1507,30
312,90	1628,14
313,12	1574,89
313,33	1492,97
313,54	1681,38
313,75	1439,72
313,96	1505,26
314,17	1478,63
314,39	1492,97
314,60	1540,07
314,81	1505,26
315,02	1464,30
315,23	1492,97
315,44	1538,02
315,65	1505,26
315,87	1556,46
316,08	1599,46
316,29	1361,90
316,50	1548,26
316,71	1458,15
316,92	1505,26
317,14	1466,35
317,35	1546,22
317,56	1540,07
317,77	1544,17
317,98	1525,74
318,19	1509,35
318,40	1472,49
318,62	1554,41
318,83	1564,65
319,04	1615,85
319,25	1464,30
319,46	1587,18
319,67	1472,49
319,88	1587,18
320,09	1572,84
320,31	1583,08
320,52	1505,26
320,73	1589,22
320,94	1488,87
321,15	1482,73
321,36	1572,84
321,57	1540,07
321,78	1544,17
322,00	1613,80
322,21	1472,49
322,42	1486,83
322,63	1546,22
322,84	1472,49
323,05	1562,60
323,26	1521,64
323,47	1521,64
323,69	1538,02
323,90	1558,50
324,11	1492,97
324,32	1587,18
324,53	1472,49
324,74	1468,39
324,95	1540,07
325,16	1593,32
325,37	1558,50
325,59	1443,82
325,80	1578,98
326,01	1472,49
326,22	1597,42
326,43	1517,54
326,64	1574,89
326,85	1562,60
327,06	1464,30
327,27	1546,22
327,48	1652,71
327,69	1660,90
327,91	1542,12
328,12	1472,49
328,33	1466,35
328,54	1497,07
328,75	1513,45
328,96	1628,14
329,17	1525,74
329,38	1542,12
329,59	1441,77
329,80	1914,85
330,01	1548,26
330,23	1581,03
330,44	1529,83
330,65	1480,68
330,86	1513,45
331,07	1505,26
331,28	1529,83
331,49	1464,30
331,70	1546,22
331,91	1476,59
332,12	1513,45
332,33	1603,56
332,54	1581,03
332,75	1605,61
332,96	1458,15
333,17	1591,27
333,39	1515,50
333,60	1548,26
333,81	1564,65
334,02	1505,26
334,23	1558,50
334,44	1445,87
334,65	1529,83
334,86	1505,26
335,07	1472,49
335,28	1499,11
335,49	1587,18
335,70	1482,73
335,91	1480,68
336,12	1521,64
336,33	1578,98
336,54	1505,26
336,75	1554,41
336,96	1474,54
337,17	1521,64
337,39	1441,77
337,60	1546,22
337,81	1531,88
338,02	1535,98
338,23	1574,89
338,44	1466,35
338,65	1515,50
338,86	1621,99
339,07	1562,60
339,28	1513,45
339,49	1572,84
339,70	1554,41
339,91	1505,26
340,12	1613,80
340,33	1431,53
340,54	1492,97
340,75	1521,64
340,96	1505,26
341,17	1548,26
341,38	1472,49
341,59	1497,07
341,80	1652,71
342,01	1435,63
342,22	1497,07
342,43	1529,83
342,64	1531,88
342,85	1548,26
343,06	1556,46
343,27	1488,87
343,48	1578,98
343,69	1425,39
343,90	1497,07
344,11	1562,60
344,32	1564,65
344,53	1636,33
344,74	1480,68
344,95	1562,60
345,16	1554,41
345,37	1439,72
345,58	1466,35
345,79	1447,91
346,00	1611,75
346,21	1411,05
346,42	1581,03
346,63	1513,45
346,84	1578,98
347,05	1439,72
347,26	1425,39
347,47	1538,02
347,68	1529,83
347,89	1476,59
348,10	1488,87
348,31	1538,02
348,52	1458,15
348,73	1548,26
348,94	1431,53
349,15	1572,84
349,36	1509,35
349,57	1447,91
349,78	1538,02
349,99	1507,30
350,20	1583,08
350,41	1531,88
350,62	1392,62
350,83	1556,46
351,04	1464,30
351,25	1425,39
351,46	1513,45
351,67	1482,73
351,88	1474,54
352,09	1572,84
352,30	1558,50
352,50	1578,98
352,71	1499,11
352,92	1497,07
353,13	1570,79
353,34	1435,63
353,55	1558,50
353,76	1480,68
353,97	1603,56
354,18	1513,45
354,39	1554,41
354,60	1570,79
354,81	1574,89
355,02	1587,18
355,23	1603,56
355,44	1482,73
355,65	1499,11
355,86	1521,64
356,07	1529,83
356,28	1531,88
356,48	1570,79
356,69	1488,87
356,90	1509,35
357,11	1480,68
357,32	1570,79
357,53	1570,79
357,74	1564,65
357,95	1550,31
358,16	1554,41
358,37	1431,53
358,58	1476,59
358,79	1550,31
359,00	1583,08
359,21	1472,49
359,41	1570,79
359,62	1587,18
359,83	1529,83
360,04	1544,17
360,25	1595,37
360,46	1550,31
360,67	1505,26
360,88	1480,68
361,09	1562,60
361,30	1507,30
361,51	1531,88
361,72	1460,20
361,92	1728,49
362,13	1439,72
362,34	1515,50
362,55	1497,07
362,76	1466,35
362,97	1531,88
363,18	1628,14
363,39	1621,99
363,60	1464,30
363,81	1515,50
364,01	1562,60
364,22	1521,64
364,43	1548,26
364,64	1548,26
364,85	1538,02
365,06	1490,92
365,27	1603,56
365,48	1591,27
365,69	1566,70
365,89	1492,97
366,10	1554,41
366,31	1570,79
366,52	1595,37
366,73	1531,88
366,94	1630,18
367,15	1501,16
367,36	1540,07
367,57	1654,76
367,77	1597,42
367,98	1574,89
368,19	1525,74
368,40	1570,79
368,61	1619,94
368,82	1460,20
369,03	1578,98
369,23	1728,49
369,44	1554,41
369,65	1437,67
369,86	1578,98
370,07	1562,60
370,28	1595,37
370,49	1521,64
370,70	1513,45
370,90	1595,37
371,11	1431,53
371,32	1566,70
371,53	1521,64
371,74	1472,49
371,95	1529,83
372,16	1505,26
372,36	1480,68
372,57	1558,50
372,78	1570,79
372,99	1472,49
373,20	1505,26
373,41	1449,96
373,61	1517,54
373,82	1595,37
374,03	1599,46
374,24	1509,35
374,45	1591,27
374,66	1460,20
374,86	1597,42
375,07	1499,11
375,28	1513,45
375,49	1505,26
375,70	1519,59
375,91	1578,98
376,11	1529,83
376,32	1529,83
376,53	1476,59
376,74	1621,99
376,95	1976,29
377,16	1591,27
377,36	1550,31
377,57	1597,42
377,78	1538,02
377,99	1562,60
378,20	1529,83
378,40	1546,22
378,61	1505,26
378,82	1554,41
379,03	1621,99
379,24	1644,52
379,45	1464,30
379,65	1497,07
379,86	1632,23
380,07	1464,30
380,28	1546,22
380,49	1556,46
380,69	1628,14
380,90	1671,14
381,11	1564,65
381,32	1587,18
381,53	1538,02
381,73	1513,45
381,94	1595,37
382,15	1570,79
382,36	1546,22
382,57	1636,33
382,77	1452,01
382,98	1525,74
383,19	1628,14
383,40	1556,46
383,60	1538,02
383,81	1587,18
384,02	1583,08
384,23	1611,75
384,44	1417,19
384,64	1501,16
384,85	1570,79
385,06	1558,50
385,27	1540,07
385,48	1521,64
385,68	1583,08
385,89	1527,78
386,10	1570,79
386,31	1517,54
386,51	1521,64
386,72	1505,26
386,93	1554,41
387,14	1533,93
387,34	1447,91
387,55	1509,35
387,76	1578,98
387,97	1521,64
388,17	1460,20
388,38	1587,18
388,59	1597,42
388,80	1533,93
389,01	1521,64
389,21	1513,45
389,42	1619,94
389,63	1607,66
389,84	1484,78
390,04	1587,18
390,25	1562,60
390,46	1611,75
390,67	1578,98
390,87	1578,98
391,08	1529,83
391,29	1554,41
391,49	1544,17
391,70	1472,49
391,91	1628,14
392,12	1554,41
392,32	1513,45
392,53	1572,84
392,74	1515,50
392,95	1497,07
393,15	1554,41
393,36	1538,02
393,57	1521,64
393,78	1542,12
393,98	1501,16
394,19	1611,75
394,40	1687,53
394,60	1607,66
394,81	1497,07
395,02	1497,07
395,23	1546,22
395,43	1497,07
395,64	1660,90
395,85	1507,30
396,06	1458,15
396,26	1572,84
396,47	1554,41
396,68	1523,69
396,88	1669,09
397,09	1468,39
397,30	1581,03
397,50	1529,83
397,71	1558,50
397,92	1611,75
398,13	1515,50
398,33	1464,30
398,54	1619,94
398,75	1464,30
398,95	1630,18
399,16	1492,97
399,37	1597,42
399,57	1513,45
399,78	1546,22
399,99	1621,99
400,20	1753,06
400,40	1464,30
400,61	1570,79
400,82	1556,46
401,02	1521,64
401,23	1562,60
401,44	1482,73
401,64	1578,98
401,85	1439,72
402,06	1574,89
402,26	1595,37
402,47	1597,42
402,68	1734,63
402,88	1558,50
403,09	1603,56
403,30	1587,18
403,50	1505,26
403,71	1677,29
403,92	1523,69
404,12	1458,15
404,33	1662,95
404,54	1572,84
404,74	1611,75
404,95	1603,56
405,16	1497,07
405,36	1621,99
405,57	1509,35
405,78	1611,75
405,98	1564,65
406,19	1550,31
406,40	1581,03
406,60	1619,94
406,81	1570,79
407,02	1587,18
407,22	1546,22
407,43	1464,30
407,64	1531,88
407,84	1497,07
408,05	1595,37
408,26	1521,64
408,46	1681,38
408,67	1679,33
408,87	1515,50
409,08	1550,31
409,29	1597,42
409,49	1546,22
409,70	1531,88
409,91	1673,19
410,11	1617,90
410,32	1560,55
410,53	1562,60
410,73	1562,60
410,94	1636,33
411,14	1538,02
411,35	1529,83
411,56	1574,89
411,76	1677,29
411,97	1597,42
412,18	1566,70
412,38	1554,41
412,59	1548,26
412,79	1525,74
413,00	1578,98
413,21	1501,16
413,41	1552,36
413,62	1578,98
413,82	1556,46
414,03	1636,33
414,24	1654,76
414,44	1587,18
414,65	1615,85
414,86	1587,18
415,06	1689,57
415,27	1578,98
415,47	1656,81
415,68	1599,46
415,89	1669,09
416,09	1693,67
416,30	1570,79
416,50	1603,56
416,71	1701,86
416,92	1578,98
417,12	1751,01
417,33	1665,00
417,53	1628,14
417,74	1685,48
417,94	1599,46
418,15	1685,48
418,36	1660,90
418,56	1603,56
418,77	1603,56
418,97	1587,18
419,18	1677,29
419,39	1693,67
419,59	1669,09
419,80	1705,96
420,00	1603,56
420,21	1693,67
420,41	1744,87
420,62	1755,11
420,83	1730,53
421,03	1697,77
421,24	1710,05
421,44	1677,29
421,65	1834,98
421,85	1789,92
422,06	1689,57
422,27	1841,12
422,47	1849,32
422,68	1859,56
422,88	1873,89
423,09	1738,73
423,29	1882,08
423,50	1875,94
423,70	1884,13
423,91	1974,24
424,12	1906,66
424,32	1859,56
424,53	1923,04
424,73	2031,58
424,94	2004,96
425,14	2013,15
425,35	2013,15
425,55	2009,06
425,76	2152,42
425,96	2136,03
426,17	2119,65
426,37	2127,84
426,58	2127,84
426,79	2146,27
426,99	2250,72
427,20	2244,57
427,40	2340,83
427,61	2236,38
427,81	2316,25
428,02	2287,58
428,22	2385,88
428,43	2408,41
428,63	2400,22
428,84	2441,18
429,04	2414,56
429,25	2627,54
429,45	2602,97
429,66	2725,85
429,86	2613,21
430,07	2660,31
430,27	2742,23
430,48	2840,53
430,68	2754,52
430,89	2955,22
431,09	2811,86
431,30	2963,41
431,50	3102,67
431,71	3106,77
431,91	3239,89
432,12	3219,41
432,32	3450,83
432,53	3311,57
432,73	3399,63
432,94	3499,98
433,14	3745,73
433,35	3733,45
433,55	3880,90
433,76	3835,85
433,96	3901,38
434,17	4249,54
434,37	4085,70
434,58	4204,48
434,78	4356,03
434,99	4440,00
435,19	4667,32
435,40	4790,20
435,60	5027,76
435,81	5048,24
436,01	5314,48
436,22	5330,86
436,42	5339,05
436,63	5568,43
436,83	5863,33
437,04	6002,60
437,24	5996,45
437,45	6004,64
437,65	6051,75
437,86	6340,51
438,06	6567,84
438,26	6569,88
438,47	6637,47
438,67	7051,16
438,88	7206,80
439,08	7151,51
439,29	7413,65
439,49	7741,32
439,70	7780,23
439,90	8073,09
440,11	8447,87
440,31	8595,32
440,52	8599,42
440,72	8853,37
440,92	8912,76
441,13	9131,89
441,33	9688,94
441,54	10045,29
441,74	10073,96
441,95	10215,27
442,15	10559,33
442,36	10663,77
442,56	11429,71
442,76	11646,80
442,97	11433,81
443,17	11806,54
443,38	12439,36
443,58	12308,29
443,79	12461,89
443,99	13301,56
444,19	13743,92
444,40	14108,46
444,60	14382,88
444,81	14399,27
445,01	14948,12
445,22	14831,39
445,42	15882,00
445,62	16221,96
445,83	16840,45
446,03	17229,56
446,24	17792,75
446,44	18736,87
446,64	18833,12
446,85	18620,13
447,05	19914,45
447,26	20723,40
447,46	20940,48
447,67	21434,04
447,87	21986,99
448,07	23670,42
448,28	24106,64
448,48	23858,84
448,69	24202,89
448,89	25235,07
449,09	26390,13
449,30	27285,09
449,50	29054,53
449,71	28954,18
449,91	30756,39
450,11	31004,20
450,32	31637,02
450,52	32204,31
450,72	34538,99
450,93	34043,38
451,13	35200,49
451,34	36599,25
451,54	38147,51
451,74	38630,83
451,95	39194,03
452,15	39523,75
452,36	40623,51
452,56	44129,63
452,76	42661,24
452,97	44684,63
453,17	47459,63
453,37	46376,25
453,58	48442,65
453,78	49591,56
453,98	49706,25
454,19	50220,29
454,39	50306,30
454,60	52997,34
454,80	52397,28
455,00	53970,12
455,21	52731,10
455,41	57330,84
455,61	55518,38
455,82	56700,06
456,02	55868,59
456,22	57506,96
456,43	57715,86
456,63	60128,36
456,84	60894,30
457,04	60656,74
457,24	59427,96
457,45	61795,41
457,65	62934,08
457,85	62071,88
458,06	61432,92
458,26	60267,62
458,46	61176,92
458,67	62606,40
458,87	60617,83
459,07	59804,78
459,28	59524,21
459,48	59704,43
459,68	59499,64
459,89	59294,84
460,09	59360,37
460,29	59468,92
460,50	56503,46
460,70	57629,84
460,90	56372,39
461,11	57678,99
461,31	57216,15
461,51	55651,50
461,72	55231,67
461,92	55114,94
462,12	51111,16
462,32	50556,16
462,53	52118,76
462,73	50273,54
462,93	50842,87
463,14	48225,57
463,34	45675,85
463,54	46107,97
463,75	45178,19
463,95	45524,30
464,15	44694,87
464,36	45368,65
464,56	42489,21
464,76	42194,30
464,96	41383,30
465,17	41110,92
465,37	39579,04
465,57	40035,74
465,78	39732,64
465,98	38266,30
466,18	38618,55
466,39	37004,75
466,59	37754,30
466,79	36611,54
466,99	36660,69
467,20	36232,66
467,40	34729,45
467,60	34100,73
467,81	34297,33
468,01	34549,23
468,21	33887,74
468,41	32734,73
468,62	32359,95
468,82	31854,11
469,02	31837,72
469,22	31694,36
469,43	30692,91
469,63	31462,94
469,83	31606,30
470,04	31104,55
470,24	30729,77
470,44	30291,51
470,64	30907,94
470,85	29607,48
471,05	28601,93
471,25	28534,35
471,45	29177,41
471,66	29244,99
471,86	28571,21
472,06	28950,09
472,26	27948,63
472,47	26902,12
472,67	27889,24
472,87	28261,97
473,07	26578,54
473,28	25888,37
473,48	25724,54
473,68	25339,52
473,88	25511,55
474,09	25413,24
474,29	24962,69
474,49	24891,01
474,69	24893,06
474,90	24180,37
475,10	23068,32
475,30	23594,65
475,50	23320,22
475,70	22935,20
475,91	22474,41
476,11	22116,01
476,31	22208,17
476,51	21477,05
476,72	21257,92
476,92	20539,08
477,12	20876,99
477,32	20201,16
477,53	19857,10
477,73	19693,27
477,93	19298,01
478,13	19003,10
478,33	18413,29
478,54	18026,22
478,74	18005,74
478,94	17270,52
479,14	17366,78
479,34	16695,04
479,55	16559,88
479,75	16070,41
479,95	16361,22
480,15	16156,43
480,35	15734,54
480,56	15529,75
480,76	15359,77
480,96	14808,86
481,16	14386,98
481,36	14223,14
481,57	13983,53
481,77	13403,96
481,97	13418,29
482,17	13477,68
482,37	12977,98
482,58	12670,78
482,78	12474,18
482,98	12400,45
483,18	12031,82
483,38	11818,83
483,58	11896,65
483,79	11599,70
483,99	11245,40
484,19	10979,16
484,39	11362,13
484,59	10852,19
484,80	10796,89
485,00	10651,49
485,20	10245,99
485,40	10456,93
485,60	10159,97
485,80	9906,02
486,01	9877,35
486,21	9680,75
486,41	9660,27
486,61	9516,91
486,81	9385,84
487,01	9189,24
487,22	9115,51
487,42	8810,36
487,62	8542,08
487,82	8822,65
488,02	8550,27
488,22	8626,04
488,42	8460,16
488,63	8427,39
488,83	7956,36
489,03	7968,65
489,23	8011,65
489,43	7853,96
489,63	7735,18
489,83	7432,08
490,04	7438,22
490,24	7305,10
490,44	7176,08
490,64	7112,60
490,84	6932,37
491,04	6940,57
491,24	6782,87
491,44	6580,12
491,65	6723,48
491,85	6543,26
492,05	6457,25
492,25	6256,54
492,45	6207,39
492,65	6141,86
492,85	5971,88
493,05	6115,23
493,26	5769,13
493,46	5875,62
493,66	5687,21
493,86	5478,32
494,06	5453,74
494,26	5519,28
494,46	5330,86
494,66	5175,22
494,86	5113,78
495,07	5062,58
495,27	5085,11
495,47	4884,41
495,67	4724,66
495,87	4972,47
496,07	4741,05
496,27	4593,59
496,47	4532,15
496,67	4417,47
496,87	4353,98
497,08	4358,08
497,28	4267,97
497,48	4224,96
497,68	4278,21
497,88	4151,23
498,08	3923,91
498,28	3940,29
498,48	3909,57
498,68	3839,94
498,88	3778,50
499,08	3778,50
499,29	3772,36
499,49	3719,11
499,69	3676,10
499,89	3610,57
500,09	3413,96
500,29	3475,40
500,49	3270,61
500,69	3338,19
500,89	3340,24
501,09	3225,55
501,29	3137,49
501,49	3069,91
501,69	3184,59
501,89	3137,49
502,09	3102,67
502,30	3055,57
502,50	3119,06
502,70	2949,08
502,90	3033,04
503,10	2809,81
503,30	2865,11
503,50	2836,44
503,70	2791,38
503,90	2803,67
504,10	2752,47
504,30	2779,09
504,50	2742,23
504,70	2711,51
504,90	2594,78
505,10	2777,05
505,30	2668,50
505,50	2645,98
505,70	2643,93
505,90	2586,58
506,10	2488,28
506,30	2562,01
506,50	2547,67
506,70	2527,19
506,90	2447,32
507,11	2443,23
507,31	2480,09
507,51	2506,71
507,71	2463,71
507,91	2336,73
508,11	2422,75
508,31	2383,84
508,51	2326,49
508,71	2387,93
508,91	2209,76
509,11	2263,01
509,31	2351,07
509,51	2170,85
509,71	2310,11
509,91	2267,10
510,11	2318,30
510,31	2209,76
510,51	2252,77
510,71	2242,53
510,91	2160,61
511,11	2095,07
511,31	2136,03
511,51	2097,12
511,71	2144,22
511,91	2119,65
512,11	2093,02
512,31	1980,39
512,51	2144,22
512,71	2070,50
512,91	2103,26
513,11	1968,10
513,31	2039,78
513,51	2025,44
513,71	1980,39
513,91	2021,35
514,11	2062,30
514,31	2021,35
514,51	1931,23
514,71	2021,35
514,90	1964,00
515,10	1966,05
515,30	1980,39
515,50	1908,71
515,70	2037,73
515,90	1931,23
516,10	2013,15
516,30	1834,98
516,50	1882,08
516,70	1865,70
516,90	1767,40
517,10	1832,93
517,30	1949,67
517,50	1902,56
517,70	1834,98
517,90	1900,52
518,10	1843,17
518,30	1931,23
518,50	1841,12
518,70	1886,18
518,90	1849,32
519,10	1849,32
519,30	1841,12
519,50	1767,40
519,69	1843,17
519,89	1849,32
520,09	1744,87
520,29	1791,97
520,49	1834,98
520,69	1742,82
520,89	1787,88
521,09	1753,06
521,29	2111,46
521,49	1685,48
521,69	1767,40
521,89	1824,74
522,09	1830,88
522,29	1826,79
522,48	1783,78
522,68	1734,63
522,88	1751,01
523,08	1818,60
523,28	1802,21
523,48	1771,49
523,68	1712,10
523,88	1791,97
524,08	1662,95
524,28	1826,79
524,48	1767,40
524,68	1712,10
524,87	1734,63
525,07	1660,90
525,27	1783,78
525,47	1693,67
525,67	1742,82
525,87	1607,66
526,07	1767,40
526,27	1660,90
526,47	1671,14
526,67	1753,06
526,86	1615,85
527,06	1644,52
527,26	1759,21
527,46	1689,57
527,66	1693,67
527,86	1714,15
528,06	1605,61
528,26	1695,72
528,46	1562,60
528,65	1621,99
528,85	1660,90
529,05	1578,98
529,25	1648,61
529,45	1685,48
529,65	1562,60
529,85	1671,14
530,05	1636,33
530,24	1734,63
530,44	1558,50
530,64	1718,25
530,84	1660,90
531,04	1611,75
531,24	1652,71
531,44	1652,71
531,63	1587,18
531,83	1753,06
532,03	1687,53
532,23	1665,00
532,43	1714,15
532,63	1564,65
532,83	1619,94
533,02	1677,29
533,22	1640,42
533,42	1611,75
533,62	1646,57
533,82	1578,98
534,02	1685,48
534,22	1644,52
534,41	1591,27
534,61	1652,71
534,81	1628,14
535,01	1624,04
535,21	1693,67
535,41	1693,67
535,60	1607,66
535,80	1542,12
536,00	1531,88
536,20	1636,33
536,40	1578,98
536,60	1632,23
536,79	1558,50
536,99	1652,71
537,19	1726,44
537,39	1681,38
537,59	1581,03
537,78	1570,79
537,98	1621,99
538,18	1619,94
538,38	1636,33
538,58	1644,52
538,77	1669,09
538,97	1595,37
539,17	1734,63
539,37	1738,73
539,57	1587,18
539,77	1685,48
539,96	1613,80
540,16	1652,71
540,36	1685,48
540,56	1619,94
540,76	1718,25
540,95	1740,77
541,15	1726,44
541,35	1810,40
541,55	1771,49
541,74	1693,67
541,94	1890,28
542,14	1849,32
542,34	1841,12
542,54	1898,47
542,73	1925,09
542,93	1832,93
543,13	1855,46
543,33	1890,28
543,53	1783,78
543,72	1832,93
543,92	1816,55
544,12	1826,79
544,32	1982,43
544,51	1849,32
544,71	1814,50
544,91	1875,94
545,11	1824,74
545,30	1826,79
545,50	1769,44
545,70	1980,39
545,90	1998,82
546,10	2146,27
546,29	2168,80
546,49	2209,76
546,69	2146,27
546,89	2054,11
547,08	2154,46
547,28	1931,23
547,48	1957,86
547,68	1914,85
547,87	1832,93
548,07	1898,47
548,27	1800,16
548,47	1728,49
548,66	1785,83
548,86	1890,28
549,06	1751,01
549,25	1726,44
549,45	1785,83
549,65	1669,09
549,85	1746,92
550,04	1791,97
550,24	1710,05
550,44	1673,19
550,64	1736,68
550,83	1703,91
551,03	1695,72
551,23	1611,75
551,43	1714,15
551,62	1621,99
551,82	1710,05
552,02	1703,91
552,21	1638,38
552,41	1726,44
552,61	1701,86
552,81	1564,65
553,00	1632,23
553,20	1570,79
553,40	1636,33
553,59	1669,09
553,79	1701,86
553,99	1638,38
554,18	1669,09
554,38	1597,42
554,58	1589,22
554,78	1677,29
554,97	1554,41
555,17	1652,71
555,37	1570,79
555,56	1595,37
555,76	1554,41
555,96	1638,38
556,15	1613,80
556,35	1548,26
556,55	1595,37
556,74	1570,79
556,94	1665,00
557,14	1591,27
557,34	1505,26
557,53	1636,33
557,73	1621,99
557,93	1603,56
558,12	1603,56
558,32	1566,70
558,52	1638,38
558,71	1546,22
558,91	1548,26
559,11	1619,94
559,30	1556,46
559,50	1546,22
559,70	1564,65
559,89	1562,60
560,09	1574,89
560,29	1538,02
560,48	1574,89
560,68	1546,22
560,88	1570,79
561,07	1548,26
561,27	1595,37
561,46	1660,90
561,66	1710,05
561,86	1554,41
562,05	1515,50
562,25	1597,42
562,45	1570,79
562,64	1464,30
562,84	1671,14
563,04	1644,52
563,23	1595,37
563,43	1556,46
563,63	1701,86
563,82	1660,90
564,02	1619,94
564,21	1484,78
564,41	1603,56
564,61	1583,08
564,80	1669,09
565,00	1593,32
565,20	1660,90
565,39	1474,54
565,59	1507,30
565,78	1603,56
565,98	1662,95
566,18	1570,79
566,37	1644,52
566,57	1505,26
566,77	1587,18
566,96	1505,26
567,16	1607,66
567,35	1554,41
567,55	1597,42
567,75	1660,90
567,94	1619,94
568,14	1650,66
568,33	1591,27
568,53	1521,64
568,73	1675,24
568,92	1660,90
569,12	1591,27
569,31	1578,98
569,51	1578,98
569,71	1660,90
569,90	1566,70
570,10	1521,64
570,29	1611,75
570,49	1562,60
570,69	1619,94
570,88	1554,41
571,08	1578,98
571,27	1521,64
571,47	1640,42
571,66	1515,50
571,86	1529,83
572,06	1554,41
572,25	1476,59
572,45	1558,50
572,64	1617,90
572,84	1632,23
573,03	1644,52
573,23	1660,90
573,43	1644,52
573,62	1540,07
573,82	1628,14
574,01	1574,89
574,21	1497,07
574,40	1677,29
574,60	1646,57
574,79	1554,41
574,99	1628,14
575,19	1576,94
575,38	1685,48
575,58	1630,18
575,77	1671,14
575,97	1601,51
576,16	1607,66
576,36	1521,64
576,55	1679,33
576,75	1669,09
576,94	1652,71
577,14	1611,75
577,34	1648,61
577,53	1636,33
577,73	1654,76
577,92	1562,60
578,12	1685,48
578,31	1505,26
578,51	1646,57
578,70	1603,56
578,90	1662,95
579,09	1710,05
579,29	1687,53
579,48	1669,09
579,68	1652,71
579,87	1611,75
580,07	1564,65
580,26	1621,99
580,46	1628,14
580,65	1703,91
580,85	1660,90
581,04	1744,87
581,24	1644,52
581,43	1660,90
581,63	1587,18
581,82	1605,61
582,02	1624,04
582,21	1611,75
582,41	1644,52
582,60	1542,12
582,80	1710,05
582,99	1626,09
583,19	1638,38
583,38	1648,61
583,58	1646,57
583,77	1679,33
583,97	1603,56
584,16	1724,39
584,36	1611,75
584,55	1587,18
584,75	1603,56
584,94	1652,71
585,14	1722,34
585,33	1599,46
585,53	1736,68
585,72	1660,90
585,92	1728,49
586,11	1538,02
586,31	1644,52
586,50	1695,72
586,70	1589,22
586,89	1624,04
587,09	1605,61
587,28	1611,75
587,47	1662,95
587,67	1665,00
587,86	1722,34
588,06	1628,14
588,25	1652,71
588,45	1554,41
588,64	1583,08
588,84	1693,67
589,03	1638,38
589,23	1507,30
589,42	1587,18
589,61	1597,42
589,81	1660,90
590,00	1644,52
590,20	1578,98
590,39	1497,07
590,59	1529,83
590,78	1607,66
590,98	1605,61
591,17	1529,83
591,36	1636,33
591,56	1611,75
591,75	1665,00
591,95	1587,18
592,14	1685,48
592,34	1685,48
592,53	1576,94
592,72	1636,33
592,92	1679,33
593,11	1611,75
593,31	1591,27
593,50	1646,57
593,69	1712,10
593,89	1660,90
594,08	1595,37
594,28	1660,90
594,47	1562,60
594,67	1714,15
594,86	1603,56
595,05	1564,65
595,25	1669,09
595,44	1587,18
595,64	1603,56
595,83	1691,62
596,02	1685,48
596,22	1591,27
596,41	1490,92
596,61	1652,71
596,80	1533,93
596,99	1578,98
597,19	1591,27
597,38	1513,45
597,58	1681,38
597,77	1646,57
597,96	1605,61
598,16	1630,18
598,35	1562,60
598,54	1558,50
598,74	1515,50
598,93	1497,07
599,13	1529,83
599,32	1515,50
599,51	1550,31
599,71	1652,71
599,90	1642,47
600,09	1570,79
600,29	1636,33
600,48	1562,60
600,68	1652,71
600,87	1566,70
601,06	1751,01
601,26	1587,18
601,45	1556,46
601,64	1546,22
601,84	1710,05
602,03	1628,14
602,22	1662,95
602,42	1503,21
602,61	1581,03
602,80	1566,70
603,00	1570,79
603,19	1544,17
603,38	1660,90
603,58	1568,74
603,77	1673,19
603,96	1525,74
604,16	1578,98
604,35	1599,46
604,54	1630,18
604,74	1562,60
604,93	1638,38
605,12	1513,45
605,32	1531,88
605,51	1566,70
605,70	1456,11
605,90	1538,02
606,09	1578,98
606,28	1452,01
606,48	1558,50
606,67	1505,26
606,86	1628,14
607,06	1564,65
607,25	1513,45
607,44	1669,09
607,64	1529,83
607,83	1570,79
608,02	1439,72
608,22	1521,64
608,41	1558,50
608,60	1550,31
608,79	1531,88
608,99	1562,60
609,18	1734,63
609,37	1529,83
609,57	1564,65
609,76	1521,64
609,95	1529,83
610,15	1636,33
610,34	1640,42
610,53	1693,67
610,72	1746,92
610,92	1736,68
611,11	1851,36
611,30	1966,05
611,50	1939,43
611,69	1949,67
611,88	1890,28
612,07	2054,11
612,27	1882,08
612,46	1906,66
612,65	1810,40
612,84	1886,18
613,04	1767,40
613,23	1755,11
613,42	1726,44
613,62	1886,18
613,81	1759,21
614,00	1808,36
614,19	1701,86
614,39	1669,09
614,58	1820,64
614,77	1736,68
614,96	1662,95
615,16	1595,37
615,35	1654,76
615,54	1701,86
615,73	1636,33
615,93	1728,49
616,12	1902,56
616,31	1591,27
616,50	1605,61
616,70	1673,19
616,89	1677,29
617,08	1673,19
617,27	1646,57
617,47	1654,76
617,66	1607,66
617,85	1587,18
618,04	1583,08
618,23	1654,76
618,43	1632,23
618,62	1521,64
618,81	1636,33
619,00	1566,70
619,20	1595,37
619,39	1599,46
619,58	1677,29
619,77	1556,46
619,96	1548,26
620,16	1599,46
620,35	1595,37
620,54	1523,69
620,73	1578,98
620,93	1599,46
621,12	1701,86
621,31	1603,56
621,50	1705,96
621,69	1669,09
621,89	1484,78
622,08	1597,42
622,27	1546,22
622,46	1576,94
622,65	1570,79
622,85	1574,89
623,04	1673,19
623,23	1517,54
623,42	1497,07
623,61	1505,26
623,81	1595,37
624,00	1546,22
624,19	1611,75
624,38	1683,43
624,57	1642,47
624,76	1605,61
624,96	1564,65
625,15	1443,82
625,34	1521,64
625,53	1673,19
625,72	1521,64
625,91	1531,88
626,11	1570,79
626,30	1595,37
626,49	1583,08
626,68	1640,42
626,87	1587,18
627,06	1603,56
627,26	1570,79
627,45	1624,04
627,64	1636,33
627,83	1562,60
628,02	1619,94
628,21	1630,18
628,41	1583,08
628,60	1603,56
628,79	1523,69
628,98	1679,33
629,17	1523,69
629,36	1529,83
629,55	1570,79
629,75	1630,18
629,94	1562,60
630,13	1562,60
630,32	1497,07
630,51	1648,61
630,70	1597,42
630,89	1578,98
631,09	1578,98
631,28	1538,02
631,47	1669,09
631,66	1595,37
631,85	1595,37
632,04	1558,50
632,23	1497,07
632,42	1607,66
632,62	1628,14
632,81	1447,91
633,00	1603,56
633,19	1480,68
633,38	1613,80
633,57	1556,46
633,76	1589,22
633,95	1449,96
634,14	1513,45
634,34	1529,83
634,53	1564,65
634,72	1521,64
634,91	1687,53
635,10	1488,87
635,29	1538,02
635,48	1607,66
635,67	1505,26
635,86	1472,49
636,05	1574,89
636,24	1529,83
636,44	1456,11
636,63	1546,22
636,82	1564,65
637,01	1619,94
637,20	1556,46
637,39	1619,94
637,58	1529,83
637,77	1560,55
637,96	1587,18
638,15	1581,03
638,34	1456,11
638,53	1587,18
638,73	1583,08
638,92	1513,45
639,11	1669,09
639,30	1513,45
639,49	1523,69
639,68	1437,67
639,87	1570,79
640,06	1472,49
640,25	1538,02
640,44	1515,50
640,63	1587,18
640,82	1482,73
641,01	1472,49
641,20	1595,37
641,39	1531,88
641,58	1525,74
641,77	1546,22
641,96	1558,50
642,16	1544,17
642,35	1660,90
642,54	1558,50
642,73	1390,57
642,92	1603,56
643,11	1652,71
643,30	1531,88
643,49	1427,43
643,68	1597,42
643,87	1533,93
644,06	1505,26
644,25	1443,82
644,44	1488,87
644,63	1574,89
644,82	1595,37
645,01	1474,54
645,20	1464,30
645,39	1513,45
645,58	1439,72
645,77	1556,46
645,96	1572,84
646,15	1523,69
646,34	1525,74
646,53	1574,89
646,72	1603,56
646,91	1550,31
647,10	1589,22
647,29	1529,83
647,48	1644,52
647,67	1464,30
647,86	1513,45
648,05	1513,45
648,24	1540,07
648,43	1566,70
648,62	1513,45
648,81	1644,52
649,00	1542,12
649,19	1535,98
649,38	1488,87
649,57	1548,26
649,76	1538,02
649,95	1533,93
650,14	1632,23
650,33	1497,07
650,52	1607,66
650,71	1484,78
650,90	1570,79
651,09	1570,79
651,28	1546,22
651,47	1505,26
651,66	1603,56
651,85	1540,07
652,04	1472,49
652,23	1415,15
652,42	1505,26
652,61	1456,11
652,80	1636,33
652,99	1439,72
653,17	1621,99
653,36	1562,60
653,55	1578,98
653,74	1505,26
653,93	1482,73
654,12	1558,50
654,31	1488,87
654,50	1497,07
654,69	1564,65
654,88	1548,26
655,07	1529,83
655,26	1554,41
655,45	1480,68
655,64	1587,18
655,83	1480,68
656,02	1562,60
656,21	1578,98
656,39	1529,83
656,58	1556,46
656,77	1431,53
656,96	1542,12
657,15	1521,64
657,34	1595,37
657,53	1390,57
657,72	1619,94
657,91	1492,97
658,10	1529,83
658,29	1578,98
658,48	1505,26
658,67	1505,26
658,85	1587,18
659,04	1406,95
659,23	1646,57
659,42	1482,73
659,61	1581,03
659,80	1599,46
659,99	1523,69
660,18	1474,54
660,37	1542,12
660,56	1490,92
660,74	1546,22
660,93	1556,46
661,12	1564,65
661,31	1525,74
661,50	1488,87
661,69	1529,83
661,88	1546,22
662,07	1546,22
662,26	1572,84
662,44	1546,22
662,63	1605,61
662,82	1523,69
663,01	1578,98
663,20	1517,54
663,39	1527,78
663,58	1548,26
663,77	1521,64
663,95	1513,45
664,14	1562,60
664,33	1456,11
664,52	1466,35
664,71	1562,60
664,90	1546,22
665,09	1456,11
665,27	1671,14
665,46	1505,26
665,65	1548,26
665,84	1548,26
666,03	1611,75
666,22	1538,02
666,41	1587,18
666,59	1472,49
666,78	1488,87
666,97	1472,49
667,16	1636,33
667,35	1529,83
667,54	1538,02
667,72	1595,37
667,91	1531,88
668,10	1482,73
668,29	1507,30
668,48	1484,78
668,67	1538,02
668,85	1499,11
669,04	1611,75
669,23	1595,37
669,42	1529,83
669,61	1562,60
669,80	1595,37
669,98	1531,88
670,17	1538,02
670,36	1531,88
670,55	1492,97
670,74	1497,07
670,92	1562,60
671,11	1533,93
671,30	1521,64
671,49	1619,94
671,68	1595,37
671,86	1443,82
672,05	1597,42
672,24	1529,83
672,43	1533,93
672,62	1554,41
672,80	1546,22
672,99	1554,41
673,18	1538,02
673,37	1511,40
673,56	1652,71
673,74	1509,35
673,93	1501,16
674,12	1488,87
674,31	1511,40
674,50	1456,11
674,68	1505,26
674,87	1507,30
675,06	1492,97
675,25	1482,73
675,43	1472,49
675,62	1423,34
675,81	1497,07
676,00	1490,92
676,19	1523,69
676,37	1521,64
676,56	1595,37
676,75	1517,54
676,94	1431,53
677,12	1562,60
677,31	1523,69
677,50	1546,22
677,69	1538,02
677,87	1517,54
678,06	1484,78
678,25	1476,59
678,44	1468,39
678,62	1447,91
678,81	1548,26
679,00	1564,65
679,19	1538,02
679,37	1521,64
679,56	1460,20
679,75	1613,80
679,94	1630,18
680,12	1474,54
680,31	1562,60
680,50	1591,27
680,68	1611,75
680,87	1482,73
681,06	1570,79
681,25	1558,50
681,43	1554,41
681,62	1521,64
681,81	1488,87
682,00	1558,50
682,18	1615,85
682,37	1515,50
682,56	1513,45
682,74	1507,30
682,93	1630,18
683,12	1525,74
683,31	1554,41
683,49	1515,50
683,68	1531,88
683,87	1513,45
684,05	1531,88
684,24	1513,45
684,43	1484,78
684,61	1529,83
684,80	1484,78
684,99	1548,26
685,18	1449,96
685,36	1523,69
685,55	1509,35
685,74	1525,74
685,92	1521,64
686,11	1513,45
686,30	1505,26
686,48	1548,26
686,67	1472,49
686,86	1548,26
687,04	1439,72
687,23	1472,49
687,42	1538,02
687,60	1546,22
687,79	1570,79
687,98	1572,84
688,16	1497,07
688,35	1556,46
688,54	1677,29
688,72	2031,58
688,91	1578,98
689,10	1484,78
689,28	1458,15
689,47	1617,90
689,66	1595,37
689,84	1472,49
690,03	1554,41
690,22	1558,50
690,40	1538,02
690,59	1521,64
690,78	1398,76
690,96	1454,06
691,15	1431,53
691,34	1587,18
691,52	1540,07
691,71	1497,07
691,89	1595,37
692,08	1515,50
692,27	1538,02
692,45	1531,88
692,64	1542,12
692,83	1548,26
693,01	1449,96
693,20	1576,94
693,38	1552,36
693,57	1497,07
693,76	1538,02
693,94	1589,22
694,13	1681,38
694,32	1484,78
694,50	1652,71
694,69	1466,35
694,87	1548,26
695,06	1497,07
695,25	1533,93
695,43	1548,26
695,62	1468,39
695,80	1517,54
695,99	1415,15
696,18	1546,22
696,36	1497,07
696,55	1564,65
696,73	1540,07
696,92	1538,02
697,11	1540,07
697,29	1574,89
697,48	1497,07
697,66	1652,71
697,85	1572,84
698,04	1515,50
698,22	1583,08
698,41	1497,07
698,59	1490,92
698,78	1480,68
698,96	1538,02
699,15	1480,68
699,34	1484,78
699,52	1509,35
699,71	1515,50
699,89	1529,83
700,08	1538,02
700,26	1548,26
700,45	1613,80
700,64	1449,96
700,82	1472,49
701,01	1497,07
701,19	1505,26
701,38	1484,78
701,56	1447,91
701,75	1452,01
701,93	1490,92
702,12	1464,30
702,31	1431,53
702,49	1513,45
702,68	1564,65
702,86	1480,68
703,05	1521,64
703,23	1499,11
703,42	1638,38
703,60	1513,45
703,79	1513,45
703,97	1513,45
704,16	1589,22
704,34	1529,83
704,53	1578,98
704,72	1521,64
704,90	1499,11
705,09	1605,61
705,27	1529,83
705,46	1529,83
705,64	1538,02
705,83	1484,78
706,01	1521,64
706,20	1439,72
706,38	1564,65
706,57	1542,12
706,75	1562,60
706,94	1554,41
707,12	1611,75
707,31	1548,26
707,49	1615,85
707,68	1609,70
707,86	1488,87
708,05	1505,26
708,23	1523,69
708,42	1578,98
708,60	1562,60
708,79	1546,22
708,97	1619,94
709,16	1640,42
709,34	1529,83
709,53	1523,69
709,71	1599,46
709,90	1613,80
710,08	1578,98
710,27	1515,50
710,45	1507,30
710,64	1497,07
710,82	1525,74
711,00	1818,60
711,19	1599,46
711,37	1456,11
711,56	1474,54
711,74	1488,87
711,93	1517,54
712,11	1505,26
712,30	1472,49
712,48	1492,97
712,67	1644,52
712,85	1509,35
713,04	1529,83
713,22	1599,46
713,40	1521,64
713,59	1507,30
713,77	1515,50
713,96	1546,22
714,14	1628,14
714,33	1574,89
714,51	1515,50
714,70	1578,98
714,88	1603,56
715,06	1456,11
715,25	1548,26
715,43	1529,83
715,62	1447,91
715,80	1482,73
715,99	1439,72
716,17	1521,64
716,35	1441,77
716,54	1591,27
716,72	1628,14
716,91	1501,16
717,09	1619,94
717,28	1562,60
717,46	1671,14
717,64	1595,37
717,83	1523,69
718,01	1492,97
718,20	1456,11
718,38	1495,02
718,56	1488,87
718,75	1538,02
718,93	1599,46
719,12	1482,73
719,30	1513,45
719,48	1456,11
719,67	1511,40
719,85	1464,30
720,04	1488,87
720,22	1472,49
720,40	1472,49
720,59	1540,07
720,77	1525,74
720,96	1652,71
721,14	1521,64
721,32	1501,16
721,51	1466,35
721,69	1488,87
721,87	1394,67
722,06	1587,18
722,24	1562,60
722,43	1501,16
722,61	1589,22
722,79	1499,11
722,98	1556,46
723,16	1570,79
723,34	1636,33
723,53	1476,59
723,71	1521,64
723,90	1529,83
724,08	1468,39
724,26	1505,26
724,45	1445,87
724,63	1521,64
724,81	1497,07
725,00	1548,26
725,18	1554,41
725,36	1507,30
725,55	1523,69
725,73	1480,68
725,91	1578,98
726,10	1480,68
726,28	1613,80
726,46	1497,07
726,65	1538,02
726,83	1533,93
727,01	1480,68
727,20	1521,64
727,38	1542,12
727,56	1574,89
727,75	1542,12
727,93	1464,30
728,11	1507,30
728,30	1460,20
728,48	1499,11
728,66	1550,31
728,85	1447,91
729,03	1490,92
729,21	1433,58
729,40	1669,09
729,58	1533,93
729,76	1484,78
729,94	1529,83
730,13	1513,45
730,31	1521,64
730,49	1363,95
730,68	1529,83
730,86	1521,64
731,04	1531,88
731,23	1540,07
731,41	1447,91
731,59	1499,11
731,77	1546,22
731,96	1597,42
732,14	1578,98
732,32	1517,54
732,51	1472,49
732,69	1488,87
732,87	1480,68
733,05	1533,93
733,24	1433,58
733,42	1538,02
733,60	1396,71
733,79	1499,11
733,97	1488,87
734,15	1480,68
734,33	1570,79
734,52	1525,74
734,70	1599,46
734,88	1640,42
735,06	1466,35
735,25	1464,30
735,43	1562,60
735,61	1400,81
735,79	1499,11
735,98	1511,40
736,16	1931,23
736,34	1523,69
736,52	1562,60
736,71	1472,49
736,89	1484,78
737,07	1507,30
737,25	1488,87
737,44	1359,85
737,62	1597,42
737,80	1574,89
737,98	1499,11
738,17	1472,49
738,35	1595,37
738,53	1593,32
738,71	1562,60
738,89	1515,50
739,08	1488,87
739,26	1490,92
739,44	1466,35
739,62	1619,94
739,81	1497,07
739,99	1521,64
740,17	1513,45
740,35	1505,26
740,53	1581,03
740,72	1488,87
740,90	1546,22
741,08	1472,49
741,26	1439,72
741,44	1449,96
741,63	1538,02
741,81	1574,89
741,99	1480,68
742,17	1615,85
742,35	1472,49
742,54	1443,82
742,72	1583,08
742,90	1578,98
743,08	1449,96
743,26	1482,73
743,45	1490,92
743,63	1581,03
743,81	1521,64
743,99	1507,30
744,17	1464,30
744,35	1456,11
744,54	1591,27
744,72	1595,37
744,90	1499,11
745,08	1431,53
745,26	1603,56
745,44	1433,58
745,63	1570,79
745,81	1484,78
745,99	1546,22
746,17	1460,20
746,35	1499,11
746,53	1568,74
746,72	1484,78
746,90	1572,84
747,08	1529,83
747,26	1556,46
747,44	1615,85
747,62	1554,41
747,81	1476,59
747,99	1374,19
748,17	1423,34
748,35	1501,16
748,53	1431,53
748,71	1546,22
748,89	1562,60
749,07	1587,18
749,26	1525,74
749,44	1546,22
749,62	1449,96
749,80	1513,45
749,98	1488,87
750,16	1427,43
750,34	1589,22
750,52	1466,35
750,71	1505,26
750,89	1554,41
751,07	1492,97
751,25	1497,07
751,43	1497,07
751,61	1558,50
751,79	1499,11
751,97	1464,30
752,15	1490,92
752,34	1587,18
752,52	1361,90
752,70	1525,74
752,88	1587,18
753,06	1449,96
753,24	1480,68
753,42	1488,87
753,60	1521,64
753,78	1505,26
753,96	1517,54
754,15	1499,11
754,33	1439,72
754,51	1480,68
754,69	1474,54
754,87	1589,22
755,05	1509,35
755,23	1472,49
755,41	1406,95
755,59	1595,37
755,77	1431,53
755,95	1454,06
756,13	1546,22
756,31	1423,34
756,50	1603,56
756,68	1476,59
756,86	1548,26
757,04	1523,69
757,22	1603,56
757,40	1480,68
757,58	1411,05
757,76	1630,18
757,94	1513,45
758,12	1521,64
758,30	1538,02
758,48	1452,01
758,66	1546,22
758,84	1509,35
759,02	1538,02
759,20	1546,22
759,38	1488,87
759,56	1402,86
759,74	1648,61
759,92	1497,07
760,10	1581,03
760,28	1531,88
760,47	1472,49
760,65	1521,64
760,83	1578,98
761,01	1429,48
761,19	1480,68
761,37	1474,54
761,55	1507,30
761,73	1474,54
761,91	1509,35
762,09	1468,39
762,27	1581,03
762,45	1546,22
762,63	1535,98
762,81	1562,60
762,99	1587,18
763,17	1466,35
763,35	1570,79
763,53	1499,11
763,71	1568,74
763,89	1826,79
764,07	1636,33
764,25	1597,42
764,43	1466,35
764,61	1578,98
764,79	1484,78
764,97	1480,68
765,15	1607,66
765,33	1480,68
765,51	1476,59
765,69	1548,26
765,87	1443,82
766,05	1443,82
766,23	1578,98
766,41	1533,93
766,58	1515,50
766,76	1474,54
766,94	1538,02
767,12	1499,11
767,30	1529,83
767,48	1497,07
767,66	1507,30
767,84	1529,83
768,02	1585,13
768,20	1570,79
768,38	1554,41
768,56	1488,87
768,74	1499,11
768,92	1523,69
769,10	1556,46
769,28	1476,59
769,46	1488,87
769,64	1587,18
769,82	1583,08
770,00	1497,07
770,18	1490,92
770,36	1562,60
770,53	1523,69
770,71	1474,54
770,89	1529,83
771,07	1535,98
771,25	1505,26
771,43	1589,22
771,61	1490,92
771,79	1441,77
771,97	1447,91
772,15	1538,02
772,33	1431,53
772,51	1538,02
772,69	1513,45
772,86	1472,49
773,04	1538,02
773,22	1589,22
773,40	1507,30
773,58	1501,16
773,76	1599,46
773,94	1433,58
774,12	1488,87
774,30	1529,83
774,48	1587,18
774,65	1501,16
774,83	1441,77
775,01	1548,26
775,19	1546,22
775,37	1452,01
775,55	1497,07
775,73	1538,02
775,91	1538,02
776,09	1599,46
776,26	1474,54
776,44	1535,98
776,62	1472,49
776,80	1406,95
776,98	1488,87
777,16	1497,07
777,34	1538,02
777,52	1447,91
777,69	1533,93
777,87	1460,20
778,05	1531,88
778,23	1431,53
778,41	1562,60
778,59	1517,54
778,77	1441,77
778,94	1480,68
779,12	1415,15
779,30	1570,79
779,48	1595,37
779,66	1513,45
779,84	1464,30
780,02	1533,93
780,19	1464,30
780,37	1544,17
780,55	1517,54
780,73	1529,83
780,91	1587,18
781,09	1525,74
781,26	1554,41
781,44	1611,75
781,62	1521,64
781,80	1523,69
781,98	1431,53
782,16	1449,96
782,33	1515,50
782,51	1628,14
782,69	1505,26
782,87	1505,26
783,05	1460,20
783,22	1695,72
783,40	1423,34
783,58	1497,07
783,76	1538,02
783,94	1603,56
784,12	1538,02
784,29	1562,60
784,47	1505,26
784,65	1507,30
784,83	1538,02
785,01	1556,46
785,18	1570,79
785,36	1538,02
785,54	1595,37
785,72	1562,60
785,89	1525,74
786,07	1505,26
786,25	1509,35
786,43	1548,26
786,61	1447,91
786,78	1433,58
786,96	1546,22
787,14	1570,79
787,32	1523,69
787,49	1587,18
787,67	1611,75
787,85	1439,72
788,03	1480,68
788,21	1558,50
788,38	1464,30
788,56	1411,05
788,74	1464,30
788,92	1640,42
789,09	1525,74
789,27	1505,26
789,45	1472,49
789,63	1460,20
789,80	1529,83
789,98	1505,26
790,16	1546,22
790,34	1449,96
790,51	1507,30
790,69	1433,58
790,87	1550,31
791,05	1480,68
791,22	1488,87
791,40	1456,11
791,58	1460,20
791,76	1578,98
791,93	1562,60
792,11	1572,84
792,29	1439,72
792,46	1531,88
792,64	1589,22
792,82	1578,98
793,00	1542,12
793,17	1505,26
793,35	1499,11
793,53	1628,14
793,70	1497,07
793,88	1509,35
794,06	1525,74
794,24	1542,12
794,41	1497,07
794,59	1558,50
794,77	1513,45
794,94	1619,94
795,12	1576,94
795,30	1490,92
795,47	1546,22
795,65	1411,05
795,83	1533,93
796,01	1505,26
796,18	1521,64
796,36	1398,76
796,54	1570,79
796,71	1603,56
796,89	1511,40
797,07	1474,54
797,24	1456,11
797,42	1636,33
797,60	1607,66
797,77	1570,79
797,95	1515,50
798,13	1464,30
798,30	1574,89
798,48	1411,05
798,66	1513,45
798,83	1589,22
799,01	1529,83
799,19	1488,87
799,36	1550,31
799,54	1404,91
799,72	1562,60
799,89	1521,64
800,07	1546,22
800,25	1472,49
800,42	1521,64
800,60	1546,22
800,78	1497,07
800,95	1599,46
801,13	1548,26
801,30	1456,11
801,48	1476,59
801,66	1546,22
801,83	1464,30
802,01	1497,07
802,19	1415,15
802,36	1439,72
802,54	1556,46
802,72	1693,67
802,89	1603,56
803,07	1490,92
803,24	1531,88
803,42	1439,72
803,60	1517,54
803,77	1517,54
803,95	1507,30
804,12	1505,26
804,30	1449,96
804,48	1439,72
804,65	1499,11
804,83	1531,88
805,01	1515,50
805,18	1570,79
805,36	1578,98
805,53	1466,35
805,71	1480,68
805,88	1427,43
806,06	1540,07
806,24	1456,11
806,41	1513,45
806,59	1562,60
806,76	1521,64
806,94	1529,83
807,12	1509,35
807,29	1488,87
807,47	1529,83
807,64	1611,75
807,82	1562,60
807,99	1433,58
808,17	1529,83
808,35	1531,88
808,52	1538,02
808,70	1538,02
808,87	1456,11
809,05	1497,07
809,22	1488,87
809,40	1505,26
809,58	1472,49
809,75	1335,28
809,93	1521,64
810,10	1476,59
810,28	1499,11
810,45	1480,68
810,63	1564,65
810,80	1497,07
810,98	1529,83
811,15	1443,82
811,33	1529,83
811,51	1460,20
811,68	1456,11
811,86	1466,35
812,03	1441,77
812,21	1488,87
812,38	1507,30
812,56	1546,22
812,73	1447,91
812,91	1464,30
813,08	1521,64
813,26	1427,43
813,43	1490,92
813,61	1630,18
813,78	1613,80
813,96	1538,02
814,13	1488,87
814,31	1556,46
814,48	1480,68
814,66	1513,45
814,83	1419,24
815,01	1447,91
815,18	1581,03
815,36	1607,66
815,53	1521,64
815,71	1519,59
815,88	1603,56
816,06	1464,30
816,23	1554,41
816,41	1443,82
816,58	1490,92
816,76	1771,49
816,93	1482,73
817,11	1558,50
817,28	1521,64
817,46	1540,07
817,63	1505,26
817,81	1644,52
817,98	1497,07
818,16	1505,26
818,33	1505,26
818,51	1546,22
818,68	1415,15
818,86	1570,79
819,03	1517,54
819,21	1558,50
819,38	1521,64
819,55	1472,49
819,73	1464,30
819,90	1437,67
820,08	1570,79
820,25	1538,02
820,43	1529,83
820,60	1425,39
820,78	1546,22
820,95	1521,64
821,12	1419,24
821,30	1529,83
821,47	1507,30
821,65	1542,12
821,82	1480,68
822,00	1525,74
822,17	1562,60
822,35	1538,02
822,52	1531,88
822,69	1466,35
822,87	1529,83
823,04	1458,15
823,22	1466,35
823,39	1423,34
823,56	1538,02
823,74	1454,06
823,91	1513,45
824,09	1490,92
824,26	1505,26
824,44	1505,26
824,61	1595,37
824,78	1529,83
824,96	1507,30
825,13	1513,45
825,31	1621,99
825,48	1538,02
825,65	1556,46
825,83	1490,92
826,00	1538,02
826,18	1497,07
826,35	1439,72
826,52	1505,26
826,70	1472,49
826,87	1562,60
827,04	1497,07
827,22	1443,82
827,39	1523,69
827,57	1595,37
827,74	1439,72
827,91	1417,19
828,09	1472,49
828,26	1464,30
828,43	1505,26
828,61	1562,60
828,78	1587,18
828,96	1587,18
829,13	1542,12
829,30	1497,07
829,48	1597,42
829,65	1470,44
829,82	1456,11
830,00	1472,49
830,17	1488,87
830,34	1505,26
830,52	1460,20
830,69	1556,46
830,86	1531,88
831,04	1501,16
831,21	1611,75
831,38	1540,07
831,56	1509,35
831,73	1529,83
831,90	1456,11
832,08	1513,45
832,25	1583,08
832,42	1517,54
832,60	1558,50
832,77	1492,97
832,94	1515,50
833,12	1406,95
833,29	1449,96
833,46	1439,72
833,64	1574,89
833,81	1546,22
833,98	1554,41
834,16	1466,35
834,33	1550,31
834,50	1564,65
834,67	1562,60
834,85	1488,87
835,02	1458,15
835,19	1480,68
835,37	1507,30
835,54	1456,11
835,71	1497,07
835,89	1439,72
836,06	1587,18
836,23	1578,98
836,40	1488,87
836,58	1595,37
836,75	1550,31
836,92	1488,87
837,10	1464,30
837,27	1366,00
837,44	1505,26
837,61	1531,88
837,79	1482,73
837,96	1492,97
838,13	1521,64
838,30	1458,15
838,48	1497,07
838,65	1521,64
838,82	1505,26
838,99	1480,68
839,17	1521,64
839,34	1529,83
839,51	1431,53
839,69	1441,77
839,86	1578,98
840,03	1576,94
840,20	1464,30
840,37	1515,50
840,55	1521,64
840,72	1538,02
840,89	1540,07
841,06	1521,64
841,24	1406,95
841,41	1595,37
841,58	1480,68
841,75	1562,60
841,93	1640,42
842,10	1480,68
842,27	1513,45
842,44	1503,21
842,62	1460,20
842,79	1652,71
842,96	1482,73
843,13	1472,49
843,30	1482,73
843,48	1509,35
843,65	1554,41
843,82	1644,52
843,99	1480,68
844,16	1423,34
844,34	1466,35
844,51	1611,75
844,68	1538,02
844,85	1531,88
845,02	1417,19
845,20	1578,98
845,37	1548,26
845,54	1589,22
845,71	1441,77
845,88	1525,74
846,06	1542,12
846,23	1435,63
846,40	1484,78
846,57	1505,26
846,74	1480,68
846,91	1474,54
847,09	1505,26
847,26	1497,07
847,43	1619,94
847,60	1466,35
847,77	1484,78
847,94	1460,20
848,12	1497,07
848,29	1538,02
848,46	1515,50
848,63	1540,07
848,80	1527,78
848,97	1554,41
849,15	1619,94
849,32	1525,74
849,49	1492,97
849,66	1505,26
849,83	1523,69
850,00	1490,92
850,17	1509,35
850,35	1546,22
850,52	1505,26
850,69	1488,87
850,86	1589,22
851,03	1480,68
851,20	1488,87
851,37	1515,50
851,55	1480,68
851,72	1452,01
851,89	1562,60
852,06	1425,39
852,23	1433,58
852,40	1611,75
852,57	1472,49
852,74	1497,07
852,92	1423,34
853,09	1423,34
853,26	1513,45
853,43	1460,20
853,60	1513,45
853,77	1456,11
853,94	1443,82
854,11	1480,68
854,28	1873,89
854,45	1538,02
854,63	1472,49
854,80	1490,92
854,97	1540,07
855,14	1488,87
855,31	1562,60
855,48	1474,54
855,65	1449,96
855,82	1480,68
855,99	1472,49
856,16	1505,26
856,33	1619,94
856,50	1423,34
856,68	1499,11
856,85	1540,07
857,02	1456,11
857,19	1439,72
857,36	1564,65
857,53	1538,02
857,70	1554,41
857,87	1517,54
858,04	1480,68
858,21	1458,15
858,38	1525,74
858,55	1611,75
858,72	1505,26
858,89	1540,07
859,06	1562,60
859,23	1538,02
859,40	1611,75
859,58	1507,30
859,75	1449,96
859,92	1554,41
860,09	1605,61
860,26	1521,64
860,43	1417,19
860,60	1480,68
860,77	1456,11
860,94	1464,30
861,11	1513,45
861,28	1564,65
861,45	1505,26
861,62	1556,46
861,79	1529,83
861,96	1513,45
862,13	1476,59
862,30	1392,62
862,47	1482,73
862,64	1718,25
862,81	1433,58
862,98	1546,22
863,15	1443,82
863,32	1480,68
863,49	1472,49
863,66	1478,63
863,83	1531,88
864,00	1398,76
864,17	1578,98
864,34	1439,72
864,51	1464,30
864,68	1460,20
864,85	1439,72
865,02	1456,11
865,19	1480,68
865,36	1523,69
865,53	1472,49
865,70	1497,07
865,87	1472,49
866,04	1525,74
866,21	1497,07
866,38	1558,50
866,55	1488,87
866,72	1501,16
866,89	1595,37
867,06	1480,68
867,23	1499,11
867,40	1517,54
867,57	1564,65
867,73	1480,68
867,90	1499,11
868,07	1540,07
868,24	1529,83
868,41	1517,54
868,58	1503,21
868,75	1427,43
868,92	1523,69
869,09	1484,78
869,26	1480,68
869,43	1564,65
869,60	1443,82
869,77	1562,60
869,94	1456,11
870,11	1513,45
870,28	1476,59
870,45	1482,73
870,61	1578,98
870,78	1533,93
870,95	1548,26
871,12	1538,02
871,29	1531,88
871,46	1566,70
871,63	1521,64
871,80	1452,01
871,97	1488,87
872,14	1570,79
872,31	1515,50
872,47	1398,76
872,64	1492,97
872,81	1517,54
872,98	1529,83
873,15	1482,73
873,32	1562,60
873,49	1531,88
873,66	1523,69
873,83	1517,54
874,00	1570,79
874,16	1521,64
874,33	1439,72
874,50	1458,15
874,67	1497,07
874,84	1452,01
875,01	1460,20
875,18	1546,22
875,35	1351,66
875,51	1499,11
875,68	1595,37
875,85	1505,26
876,02	1538,02
876,19	1562,60
876,36	1621,99
876,53	1464,30
876,69	1521,64
876,86	1533,93
877,03	1460,20
877,20	1548,26
877,37	1529,83
877,54	1501,16
877,71	1546,22
877,87	1556,46
878,04	1562,60
878,21	1431,53
878,38	1591,27
878,55	1574,89
878,72	1546,22
878,88	1490,92
879,05	1619,94
879,22	1505,26
879,39	1529,83
879,56	1505,26
879,73	1554,41
879,89	1472,49
880,06	1667,05
880,23	1492,97
880,40	1529,83
880,57	1488,87
880,74	1466,35
880,90	1497,07
881,07	1501,16
881,24	1546,22
881,41	1499,11
881,58	1574,89
881,74	1460,20
881,91	1402,86
882,08	1480,68
882,25	1578,98
882,42	1468,39
882,58	1695,72
882,75	1441,77
882,92	1566,70
883,09	1538,02
883,26	1509,35
883,42	1521,64
883,59	1492,97
883,76	1421,29
883,93	1548,26
884,09	1480,68
884,26	1595,37
884,43	1581,03
884,60	1595,37
884,77	1603,56
884,93	1490,92
885,10	1556,46
885,27	1638,38
885,44	1558,50
885,60	1591,27
885,77	1546,22
885,94	1533,93
886,11	1554,41
886,27	1488,87
886,44	1587,18
886,61	1581,03
886,78	1505,26
886,94	1554,41
887,11	1591,27
887,28	1497,07
887,45	1513,45
887,61	1507,30
887,78	1484,78
887,95	1480,68
888,12	1554,41
888,28	1474,54
888,45	1578,98
888,62	1531,88
888,78	1427,43
888,95	1515,50
889,12	1529,83
889,29	1480,68
889,45	1415,15
889,62	1505,26
889,79	1466,35
889,95	1480,68
890,12	1523,69
890,29	1447,91
890,46	1529,83
890,62	1546,22
>>>>>End Processed Spectral Data<<<<<
