SpectraSuite Data File
++++++++++++++++++++++++++++++++++++
Date: Fri Sep 15 20:19:27 BRT 2023
User: Alunos
Dark Spectrum Present: No
Reference Spectrum Present: No
Number of Sampled Component Spectra: 1
Spectrometers: USB4F07961
Integration Time (usec): 100000 (USB4F07961)
Spectra Averaged: 1 (USB4F07961)
Boxcar Smoothing: 0 (USB4F07961)
Correct for Electrical Dark: No (USB4F07961)
Strobe/Lamp Enabled: No (USB4F07961)
Correct for Detector Non-linearity: No (USB4F07961)
Correct for Stray Light: No (USB4F07961)
Number of Pixels in Processed Spectrum: 3648
>>>>>Begin Processed Spectral Data<<<<<
178,13	1275,88
178,35	1275,88
178,57	1275,88
178,78	1292,27
179,00	1275,88
179,22	1433,58
179,44	1458,15
179,66	1521,64
179,87	1488,87
180,09	1488,87
180,31	1589,22
180,53	1443,82
180,75	1505,26
180,96	1423,34
181,18	1505,26
181,40	1439,72
181,62	1406,95
181,84	1507,30
182,05	1480,68
182,27	1421,29
182,49	1546,22
182,71	1406,95
182,92	1554,41
183,14	1505,26
183,36	1505,26
183,58	1466,35
183,80	1574,89
184,01	1415,15
184,23	1480,68
184,45	1492,97
184,67	1570,79
184,89	1542,12
185,10	1531,88
185,32	1464,30
185,54	1458,15
185,76	1464,30
185,97	1499,11
186,19	1519,59
186,41	1507,30
186,63	1488,87
186,84	1431,53
187,06	1497,07
187,28	1728,49
187,50	1456,11
187,72	1523,69
187,93	1529,83
188,15	1464,30
188,37	1488,87
188,59	1425,39
188,80	1533,93
189,02	1531,88
189,24	1488,87
189,46	1497,07
189,67	1509,35
189,89	1613,80
190,11	1435,63
190,33	1540,07
190,54	1531,88
190,76	1521,64
190,98	1505,26
191,20	1499,11
191,41	1521,64
191,63	1597,42
191,85	1499,11
192,07	1456,11
192,28	1488,87
192,50	1554,41
192,72	1394,67
192,94	1484,78
193,15	1521,64
193,37	1570,79
193,59	1595,37
193,81	1507,30
194,02	1472,49
194,24	1538,02
194,46	1464,30
194,67	1544,17
194,89	1406,95
195,11	1548,26
195,33	1497,07
195,54	1578,98
195,76	1466,35
195,98	1572,84
196,20	1513,45
196,41	1497,07
196,63	1529,83
196,85	1572,84
197,06	1441,77
197,28	1540,07
197,50	1456,11
197,72	1474,54
197,93	1482,73
198,15	1480,68
198,37	1456,11
198,58	1490,92
198,80	1515,50
199,02	1572,84
199,24	1472,49
199,45	1497,07
199,67	1415,15
199,89	1439,72
200,10	1497,07
200,32	1443,82
200,54	1419,24
200,76	1505,26
200,97	1542,12
201,19	1456,11
201,41	1406,95
201,62	1521,64
201,84	1558,50
202,06	1497,07
202,28	1501,16
202,49	1603,56
202,71	1560,55
202,93	1488,87
203,14	1497,07
203,36	1548,26
203,58	1431,53
203,79	1464,30
204,01	1562,60
204,23	1538,02
204,44	1554,41
204,66	1595,37
204,88	1578,98
205,10	1503,21
205,31	1433,58
205,53	1513,45
205,75	1497,07
205,96	1574,89
206,18	1488,87
206,40	1447,91
206,61	1464,30
206,83	1503,21
207,05	1468,39
207,26	1458,15
207,48	1474,54
207,70	1480,68
207,91	1572,84
208,13	1464,30
208,35	1460,20
208,56	1447,91
208,78	1517,54
209,00	1472,49
209,21	1564,65
209,43	1513,45
209,65	1538,02
209,86	1490,92
210,08	1578,98
210,30	1540,07
210,51	1540,07
210,73	1533,93
210,95	1402,86
211,16	1529,83
211,38	1382,38
211,60	1460,20
211,81	1497,07
212,03	1578,98
212,25	1564,65
212,46	1480,68
212,68	1554,41
212,90	1507,30
213,11	1542,12
213,33	1531,88
213,55	1556,46
213,76	1570,79
213,98	1505,26
214,20	1517,54
214,41	1480,68
214,63	1542,12
214,84	1445,87
215,06	1447,91
215,28	1509,35
215,49	1556,46
215,71	1619,94
215,93	1570,79
216,14	1476,59
216,36	1554,41
216,58	1472,49
216,79	1406,95
217,01	1587,18
217,22	1456,11
217,44	1671,14
217,66	1554,41
217,87	1538,02
218,09	1431,53
218,31	1433,58
218,52	1505,26
218,74	1581,03
218,95	1497,07
219,17	1441,77
219,39	1415,15
219,60	1607,66
219,82	1611,75
220,04	1538,02
220,25	1456,11
220,47	1490,92
220,68	1505,26
220,90	1521,64
221,12	1513,45
221,33	1484,78
221,55	1550,31
221,77	1472,49
221,98	1466,35
222,20	1531,88
222,41	1540,07
222,63	1499,11
222,85	1476,59
223,06	1488,87
223,28	1538,02
223,49	1501,16
223,71	1523,69
223,93	1533,93
224,14	1546,22
224,36	1621,99
224,57	1529,83
224,79	1490,92
225,01	1464,30
225,22	1529,83
225,44	1447,91
225,65	1523,69
225,87	1505,26
226,09	1521,64
226,30	1595,37
226,52	1509,35
226,73	1406,95
226,95	1628,14
227,17	1587,18
227,38	1480,68
227,60	1554,41
227,81	1431,53
228,03	1449,96
228,24	1570,79
228,46	1587,18
228,68	1523,69
228,89	1497,07
229,11	1464,30
229,32	1468,39
229,54	1492,97
229,75	1505,26
229,97	1435,63
230,19	1507,30
230,40	1472,49
230,62	1357,80
230,83	1476,59
231,05	1513,45
231,26	1507,30
231,48	1540,07
231,70	1587,18
231,91	1447,91
232,13	1578,98
232,34	1484,78
232,56	1435,63
232,77	1546,22
232,99	1456,11
233,21	1705,96
233,42	1472,49
233,64	1595,37
233,85	1458,15
234,07	1425,39
234,28	1562,60
234,50	1521,64
234,71	1540,07
234,93	1513,45
235,15	1497,07
235,36	1417,19
235,58	1540,07
235,79	1482,73
236,01	1507,30
236,22	1548,26
236,44	1634,28
236,65	1484,78
236,87	1538,02
237,08	1464,30
237,30	1449,96
237,52	1523,69
237,73	1464,30
237,95	1464,30
238,16	1417,19
238,38	1497,07
238,59	1515,50
238,81	1488,87
239,02	1562,60
239,24	1523,69
239,45	1490,92
239,67	1531,88
239,88	1492,97
240,10	1525,74
240,31	1480,68
240,53	1482,73
240,74	1509,35
240,96	1636,33
241,18	1476,59
241,39	1433,58
241,61	1490,92
241,82	1415,15
242,04	1531,88
242,25	1531,88
242,47	1425,39
242,68	1415,15
242,90	1538,02
243,11	1480,68
243,33	1492,97
243,54	1644,52
243,76	1390,57
243,97	1556,46
244,19	1466,35
244,40	1449,96
244,62	1497,07
244,83	1425,39
245,05	1423,34
245,26	1390,57
245,48	1472,49
245,69	1578,98
245,91	1468,39
246,12	1452,01
246,34	1548,26
246,55	1525,74
246,77	1449,96
246,98	1513,45
247,20	1513,45
247,41	1497,07
247,63	1447,91
247,84	1531,88
248,06	1578,98
248,27	1480,68
248,49	1492,97
248,70	1456,11
248,92	1374,19
249,13	1400,81
249,35	1458,15
249,56	1488,87
249,78	1384,43
249,99	1513,45
250,21	1505,26
250,42	1462,25
250,64	1521,64
250,85	1562,60
251,06	1558,50
251,28	1513,45
251,49	1521,64
251,71	1452,01
251,92	1433,58
252,14	1531,88
252,35	1486,83
252,57	1515,50
252,78	1562,60
253,00	1464,30
253,21	1447,91
253,43	1509,35
253,64	1556,46
253,86	1488,87
254,07	1402,86
254,28	1480,68
254,50	1538,02
254,71	1456,11
254,93	1458,15
255,14	1505,26
255,36	1521,64
255,57	1509,35
255,79	1464,30
256,00	1497,07
256,22	1460,20
256,43	1554,41
256,64	1597,42
256,86	1562,60
257,07	1466,35
257,29	1490,92
257,50	1425,39
257,72	1581,03
257,93	1488,87
258,15	1574,89
258,36	1472,49
258,57	1515,50
258,79	1529,83
259,00	1546,22
259,22	1476,59
259,43	1452,01
259,65	1411,05
259,86	1472,49
260,08	1464,30
260,29	1660,90
260,50	1411,05
260,72	1955,81
260,93	1439,72
261,15	1460,20
261,36	1474,54
261,58	1503,21
261,79	1529,83
262,00	1513,45
262,22	1597,42
262,43	1533,93
262,65	1505,26
262,86	1478,63
263,07	1474,54
263,29	1578,98
263,50	1501,16
263,72	1472,49
263,93	1562,60
264,15	1464,30
264,36	1476,59
264,57	1564,65
264,79	1517,54
265,00	1505,26
265,22	1505,26
265,43	1488,87
265,64	1472,49
265,86	1431,53
266,07	1427,43
266,29	1581,03
266,50	1449,96
266,71	1587,18
266,93	1513,45
267,14	1538,02
267,36	1554,41
267,57	1529,83
267,78	1472,49
268,00	1652,71
268,21	1525,74
268,43	1542,12
268,64	1472,49
268,85	1464,30
269,07	1546,22
269,28	1529,83
269,50	1386,47
269,71	1447,91
269,92	1464,30
270,14	1546,22
270,35	1472,49
270,56	1581,03
270,78	1456,11
270,99	1439,72
271,21	1449,96
271,42	1509,35
271,63	1501,16
271,85	1529,83
272,06	1468,39
272,27	1406,95
272,49	1456,11
272,70	1525,74
272,92	1505,26
273,13	1513,45
273,34	1523,69
273,56	1449,96
273,77	1611,75
273,98	1515,50
274,20	1564,65
274,41	1529,83
274,63	1449,96
274,84	1492,97
275,05	1525,74
275,27	1509,35
275,48	1501,16
275,69	1570,79
275,91	1456,11
276,12	1488,87
276,33	1456,11
276,55	1490,92
276,76	1464,30
276,97	1603,56
277,19	1464,30
277,40	1458,15
277,61	1433,58
277,83	1531,88
278,04	1456,11
278,26	1482,73
278,47	1552,36
278,68	1599,46
278,90	1466,35
279,11	1456,11
279,32	1505,26
279,54	1523,69
279,75	1497,07
279,96	1482,73
280,18	1497,07
280,39	1554,41
280,60	1417,19
280,82	1564,65
281,03	1546,22
281,24	1630,18
281,46	1480,68
281,67	1449,96
281,88	1456,11
282,10	1521,64
282,31	1472,49
282,52	1509,35
282,74	1447,91
282,95	1480,68
283,16	1468,39
283,37	1554,41
283,59	1499,11
283,80	1456,11
284,01	1638,38
284,23	1439,72
284,44	1548,26
284,65	1644,52
284,87	1423,34
285,08	1605,61
285,29	1488,87
285,51	1597,42
285,72	1488,87
285,93	1597,42
286,15	1566,70
286,36	1472,49
286,57	1538,02
286,78	1449,96
287,00	1542,12
287,21	1521,64
287,42	1441,77
287,64	1460,20
287,85	1542,12
288,06	1538,02
288,28	1546,22
288,49	1480,68
288,70	1538,02
288,91	1447,91
289,13	1556,46
289,34	1533,93
289,55	1505,26
289,77	1525,74
289,98	1630,18
290,19	1548,26
290,40	1540,07
290,62	1480,68
290,83	1464,30
291,04	1497,07
291,26	1398,76
291,47	1423,34
291,68	1513,45
291,89	1423,34
292,11	1685,48
292,32	1490,92
292,53	1505,26
292,74	1464,30
292,96	1384,43
293,17	1488,87
293,38	1548,26
293,60	1583,08
293,81	1490,92
294,02	1431,53
294,23	1505,26
294,45	1509,35
294,66	1521,64
294,87	1521,64
295,08	1466,35
295,30	1548,26
295,51	1488,87
295,72	1529,83
295,93	1495,02
296,15	1570,79
296,36	1497,07
296,57	1570,79
296,78	1562,60
297,00	1484,78
297,21	1423,34
297,42	1564,65
297,63	1476,59
297,85	1546,22
298,06	1497,07
298,27	1517,54
298,48	1449,96
298,70	1439,72
298,91	1701,86
299,12	1464,30
299,33	1474,54
299,55	1505,26
299,76	1447,91
299,97	1513,45
300,18	1458,15
300,40	1441,77
300,61	1497,07
300,82	1472,49
301,03	1458,15
301,24	1480,68
301,46	1460,20
301,67	1501,16
301,88	1458,15
302,09	1531,88
302,31	1474,54
302,52	1474,54
302,73	1677,29
302,94	1542,12
303,15	1427,43
303,37	1505,26
303,58	1499,11
303,79	1554,41
304,00	1529,83
304,22	1468,39
304,43	1574,89
304,64	1578,98
304,85	1464,30
305,06	1611,75
305,28	1447,91
305,49	1554,41
305,70	1538,02
305,91	1472,49
306,12	1513,45
306,34	1464,30
306,55	1480,68
306,76	1554,41
306,97	1613,80
307,18	1531,88
307,40	1515,50
307,61	1533,93
307,82	1423,34
308,03	1562,60
308,24	1488,87
308,46	1538,02
308,67	1486,83
308,88	1472,49
309,09	1587,18
309,30	1458,15
309,52	1425,39
309,73	1611,75
309,94	1411,05
310,15	1466,35
310,36	1480,68
310,57	1546,22
310,79	1533,93
311,00	1431,53
311,21	1480,68
311,42	1570,79
311,63	1570,79
311,85	1488,87
312,06	1538,02
312,27	1554,41
312,48	1546,22
312,69	1456,11
312,90	1589,22
313,12	1562,60
313,33	1449,96
313,54	1652,71
313,75	1419,24
313,96	1529,83
314,17	1533,93
314,39	1474,54
314,60	1533,93
314,81	1515,50
315,02	1492,97
315,23	1480,68
315,44	1515,50
315,65	1546,22
315,87	1474,54
316,08	1521,64
316,29	1476,59
316,50	1466,35
316,71	1589,22
316,92	1529,83
317,14	1431,53
317,35	1505,26
317,56	1533,93
317,77	1517,54
317,98	1466,35
318,19	1472,49
318,40	1490,92
318,62	1572,84
318,83	1538,02
319,04	1578,98
319,25	1507,30
319,46	1660,90
319,67	1507,30
319,88	1488,87
320,09	1505,26
320,31	1480,68
320,52	1464,30
320,73	1564,65
320,94	1433,58
321,15	1538,02
321,36	1480,68
321,57	1503,21
321,78	1554,41
322,00	1456,11
322,21	1521,64
322,42	1497,07
322,63	1513,45
322,84	1433,58
323,05	1507,30
323,26	1460,20
323,47	1607,66
323,69	1574,89
323,90	1464,30
324,11	1482,73
324,32	1538,02
324,53	1456,11
324,74	1482,73
324,95	1507,30
325,16	1538,02
325,37	1482,73
325,59	1402,86
325,80	1531,88
326,01	1425,39
326,22	1595,37
326,43	1484,78
326,64	1595,37
326,85	1521,64
327,06	1447,91
327,27	1505,26
327,48	1611,75
327,69	1630,18
327,91	1529,83
328,12	1468,39
328,33	1366,00
328,54	1425,39
328,75	1570,79
328,96	1613,80
329,17	1525,74
329,38	1542,12
329,59	1427,43
329,80	1857,51
330,01	1554,41
330,23	1492,97
330,44	1497,07
330,65	1476,59
330,86	1574,89
331,07	1531,88
331,28	1497,07
331,49	1515,50
331,70	1513,45
331,91	1415,15
332,12	1515,50
332,33	1456,11
332,54	1554,41
332,75	1521,64
332,96	1439,72
333,17	1529,83
333,39	1556,46
333,60	1427,43
333,81	1511,40
334,02	1406,95
334,23	1456,11
334,44	1515,50
334,65	1447,91
334,86	1464,30
335,07	1488,87
335,28	1499,11
335,49	1578,98
335,70	1439,72
335,91	1488,87
336,12	1474,54
336,33	1556,46
336,54	1449,96
336,75	1497,07
336,96	1456,11
337,17	1480,68
337,39	1433,58
337,60	1427,43
337,81	1531,88
338,02	1533,93
338,23	1523,69
338,44	1439,72
338,65	1425,39
338,86	1531,88
339,07	1501,16
339,28	1517,54
339,49	1488,87
339,70	1447,91
339,91	1423,34
340,12	1521,64
340,33	1529,83
340,54	1472,49
340,75	1490,92
340,96	1488,87
341,17	1521,64
341,38	1425,39
341,59	1488,87
341,80	1581,03
342,01	1474,54
342,22	1433,58
342,43	1386,47
342,64	1538,02
342,85	1519,59
343,06	1529,83
343,27	1435,63
343,48	1497,07
343,69	1513,45
343,90	1439,72
344,11	1423,34
344,32	1505,26
344,53	1507,30
344,74	1466,35
344,95	1505,26
345,16	1538,02
345,37	1472,49
345,58	1449,96
345,79	1505,26
346,00	1558,50
346,21	1449,96
346,42	1492,97
346,63	1472,49
346,84	1515,50
347,05	1497,07
347,26	1376,24
347,47	1423,34
347,68	1554,41
347,89	1550,31
348,10	1533,93
348,31	1521,64
348,52	1415,15
348,73	1517,54
348,94	1466,35
349,15	1486,83
349,36	1435,63
349,57	1431,53
349,78	1480,68
349,99	1513,45
350,20	1611,75
350,41	1488,87
350,62	1472,49
350,83	1499,11
351,04	1423,34
351,25	1521,64
351,46	1476,59
351,67	1441,77
351,88	1472,49
352,09	1480,68
352,30	1619,94
352,50	1484,78
352,71	1488,87
352,92	1413,10
353,13	1497,07
353,34	1521,64
353,55	1540,07
353,76	1468,39
353,97	1529,83
354,18	1540,07
354,39	1564,65
354,60	1619,94
354,81	1468,39
355,02	1538,02
355,23	1548,26
355,44	1435,63
355,65	1488,87
355,86	1546,22
356,07	1542,12
356,28	1546,22
356,48	1515,50
356,69	1492,97
356,90	1447,91
357,11	1460,20
357,32	1497,07
357,53	1525,74
357,74	1497,07
357,95	1607,66
358,16	1447,91
358,37	1431,53
358,58	1476,59
358,79	1439,72
359,00	1515,50
359,21	1497,07
359,41	1564,65
359,62	1531,88
359,83	1439,72
360,04	1431,53
360,25	1546,22
360,46	1488,87
360,67	1497,07
360,88	1550,31
361,09	1572,84
361,30	1488,87
361,51	1501,16
361,72	1492,97
361,92	1564,65
362,13	1456,11
362,34	1507,30
362,55	1441,77
362,76	1466,35
362,97	1490,92
363,18	1540,07
363,39	1552,36
363,60	1513,45
363,81	1464,30
364,01	1533,93
364,22	1480,68
364,43	1480,68
364,64	1515,50
364,85	1570,79
365,06	1529,83
365,27	1507,30
365,48	1497,07
365,69	1488,87
365,89	1501,16
366,10	1548,26
366,31	1472,49
366,52	1497,07
366,73	1513,45
366,94	1595,37
367,15	1398,76
367,36	1521,64
367,57	1646,57
367,77	1501,16
367,98	1562,60
368,19	1497,07
368,40	1499,11
368,61	1501,16
368,82	1480,68
369,03	1509,35
369,23	1583,08
369,44	1497,07
369,65	1376,24
369,86	1513,45
370,07	1505,26
370,28	1488,87
370,49	1546,22
370,70	1554,41
370,90	1523,69
371,11	1505,26
371,32	1529,83
371,53	1513,45
371,74	1443,82
371,95	1513,45
372,16	1476,59
372,36	1513,45
372,57	1513,45
372,78	1431,53
372,99	1390,57
373,20	1482,73
373,41	1447,91
373,61	1460,20
373,82	1529,83
374,03	1464,30
374,24	1546,22
374,45	1497,07
374,66	1525,74
374,86	1529,83
375,07	1466,35
375,28	1591,27
375,49	1423,34
375,70	1382,38
375,91	1456,11
376,11	1505,26
376,32	1538,02
376,53	1497,07
376,74	1564,65
376,95	1933,28
377,16	1538,02
377,36	1550,31
377,57	1521,64
377,78	1456,11
377,99	1562,60
378,20	1558,50
378,40	1474,54
378,61	1556,46
378,82	1523,69
379,03	1562,60
379,24	1597,42
379,45	1458,15
379,65	1472,49
379,86	1574,89
380,07	1474,54
380,28	1427,43
380,49	1513,45
380,69	1607,66
380,90	1621,99
381,11	1531,88
381,32	1529,83
381,53	1562,60
381,73	1619,94
381,94	1546,22
382,15	1474,54
382,36	1499,11
382,57	1505,26
382,77	1423,34
382,98	1488,87
383,19	1507,30
383,40	1466,35
383,60	1538,02
383,81	1490,92
384,02	1499,11
384,23	1548,26
384,44	1409,00
384,64	1529,83
384,85	1497,07
385,06	1497,07
385,27	1472,49
385,48	1488,87
385,68	1538,02
385,89	1488,87
386,10	1460,20
386,31	1550,31
386,51	1542,12
386,72	1554,41
386,93	1546,22
387,14	1431,53
387,34	1499,11
387,55	1449,96
387,76	1474,54
387,97	1507,30
388,17	1466,35
388,38	1505,26
388,59	1497,07
388,80	1480,68
389,01	1529,83
389,21	1439,72
389,42	1599,46
389,63	1540,07
389,84	1409,00
390,04	1525,74
390,25	1531,88
390,46	1546,22
390,67	1435,63
390,87	1513,45
391,08	1490,92
391,29	1509,35
391,49	1490,92
391,70	1564,65
391,91	1474,54
392,12	1525,74
392,32	1447,91
392,53	1540,07
392,74	1554,41
392,95	1441,77
393,15	1597,42
393,36	1480,68
393,57	1431,53
393,78	1529,83
393,98	1490,92
394,19	1515,50
394,40	1546,22
394,60	1521,64
394,81	1554,41
395,02	1488,87
395,23	1425,39
395,43	1497,07
395,64	1564,65
395,85	1458,15
396,06	1431,53
396,26	1503,21
396,47	1390,57
396,68	1480,68
396,88	1570,79
397,09	1447,91
397,30	1472,49
397,50	1513,45
397,71	1427,43
397,92	1570,79
398,13	1523,69
398,33	1425,39
398,54	1546,22
398,75	1398,76
398,95	1630,18
399,16	1591,27
399,37	1507,30
399,57	1464,30
399,78	1521,64
399,99	1529,83
400,20	1644,52
400,40	1505,26
400,61	1460,20
400,82	1439,72
401,02	1554,41
401,23	1509,35
401,44	1441,77
401,64	1521,64
401,85	1562,60
402,06	1513,45
402,26	1546,22
402,47	1476,59
402,68	1742,82
402,88	1439,72
403,09	1542,12
403,30	1562,60
403,50	1484,78
403,71	1636,33
403,92	1480,68
404,12	1501,16
404,33	1595,37
404,54	1570,79
404,74	1509,35
404,95	1597,42
405,16	1507,30
405,36	1566,70
405,57	1466,35
405,78	1566,70
405,98	1562,60
406,19	1437,67
406,40	1507,30
406,60	1513,45
406,81	1495,02
407,02	1509,35
407,22	1464,30
407,43	1458,15
407,64	1460,20
407,84	1449,96
408,05	1497,07
408,26	1480,68
408,46	1466,35
408,67	1570,79
408,87	1423,34
409,08	1464,30
409,29	1509,35
409,49	1433,58
409,70	1529,83
409,91	1587,18
410,11	1519,59
410,32	1488,87
410,53	1390,57
410,73	1447,91
410,94	1517,54
411,14	1470,44
411,35	1546,22
411,56	1556,46
411,76	1564,65
411,97	1546,22
412,18	1578,98
412,38	1458,15
412,59	1501,16
412,79	1423,34
413,00	1581,03
413,21	1488,87
413,41	1443,82
413,62	1460,20
413,82	1482,73
414,03	1605,61
414,24	1497,07
414,44	1484,78
414,65	1546,22
414,86	1484,78
415,06	1562,60
415,27	1466,35
415,47	1562,60
415,68	1513,45
415,89	1521,64
416,09	1519,59
416,30	1447,91
416,50	1431,53
416,71	1621,99
416,92	1456,11
417,12	1513,45
417,33	1556,46
417,53	1361,90
417,74	1456,11
417,94	1521,64
418,15	1570,79
418,36	1531,88
418,56	1474,54
418,77	1505,26
418,97	1484,78
419,18	1542,12
419,39	1529,83
419,59	1529,83
419,80	1464,30
420,00	1366,00
420,21	1480,68
420,41	1521,64
420,62	1503,21
420,83	1456,11
421,03	1513,45
421,24	1460,20
421,44	1546,22
421,65	1521,64
421,85	1521,64
422,06	1443,82
422,27	1513,45
422,47	1523,69
422,68	1480,68
422,88	1529,83
423,09	1505,26
423,29	1589,22
423,50	1492,97
423,70	1546,22
423,91	1521,64
424,12	1439,72
424,32	1525,74
424,53	1458,15
424,73	1599,46
424,94	1492,97
425,14	1529,83
425,35	1505,26
425,55	1581,03
425,76	1564,65
425,96	1497,07
426,17	1521,64
426,37	1525,74
426,58	1538,02
426,79	1509,35
426,99	1529,83
427,20	1581,03
427,40	1562,60
427,61	1488,87
427,81	1464,30
428,02	1529,83
428,22	1431,53
428,43	1538,02
428,63	1482,73
428,84	1472,49
429,04	1531,88
429,25	1587,18
429,45	1558,50
429,66	1497,07
429,86	1521,64
430,07	1501,16
430,27	1415,15
430,48	1554,41
430,68	1497,07
430,89	1562,60
431,09	1476,59
431,30	1464,30
431,50	1480,68
431,71	1583,08
431,91	1478,63
432,12	1497,07
432,32	1570,79
432,53	1447,91
432,73	1554,41
432,94	1449,96
433,14	1482,73
433,35	1480,68
433,55	1511,40
433,76	1409,00
433,96	1472,49
434,17	1515,50
434,37	1400,81
434,58	1476,59
434,78	1497,07
434,99	1593,32
435,19	1460,20
435,40	1538,02
435,60	1587,18
435,81	1587,18
436,01	1505,26
436,22	1554,41
436,42	1605,61
436,63	1546,22
436,83	1578,98
437,04	1562,60
437,24	1521,64
437,45	1603,56
437,65	1570,79
437,86	1558,50
438,06	1564,65
438,26	1572,84
438,47	1472,49
438,67	1382,38
438,88	1513,45
439,08	1488,87
439,29	1497,07
439,49	1531,88
439,70	1546,22
439,90	1507,30
440,11	1574,89
440,31	1554,41
440,52	1529,83
440,72	1505,26
440,92	1464,30
441,13	1505,26
441,33	1562,60
441,54	1513,45
441,74	1480,68
441,95	1482,73
442,15	1595,37
442,36	1581,03
442,56	1460,20
442,76	1499,11
442,97	1480,68
443,17	1433,58
443,38	1570,79
443,58	1501,16
443,79	1488,87
443,99	1515,50
444,19	1480,68
444,40	1566,70
444,60	1501,16
444,81	1452,01
445,01	1521,64
445,22	1431,53
445,42	1474,54
445,62	1533,93
445,83	1472,49
446,03	1562,60
446,24	1497,07
446,44	1529,83
446,64	1501,16
446,85	1464,30
447,05	1482,73
447,26	1517,54
447,46	1513,45
447,67	1456,11
447,87	1447,91
448,07	1529,83
448,28	1466,35
448,48	1578,98
448,69	1480,68
448,89	1456,11
449,09	1497,07
449,30	1439,72
449,50	1433,58
449,71	1462,25
449,91	1566,70
450,11	1517,54
450,32	1488,87
450,52	1509,35
450,72	1499,11
450,93	1456,11
451,13	1538,02
451,34	1572,84
451,54	1499,11
451,74	1480,68
451,95	1507,30
452,15	1548,26
452,36	1417,19
452,56	1595,37
452,76	1570,79
452,97	1439,72
453,17	1531,88
453,37	1521,64
453,58	1456,11
453,78	1517,54
453,98	1476,59
454,19	1581,03
454,39	1417,19
454,60	1468,39
454,80	1497,07
455,00	1591,27
455,21	1368,04
455,41	1554,41
455,61	1562,60
455,82	1447,91
456,02	1474,54
456,22	1587,18
456,43	1484,78
456,63	1531,88
456,84	1439,72
457,04	1550,31
457,24	1490,92
457,45	1439,72
457,65	1570,79
457,85	1505,26
458,06	1447,91
458,26	1509,35
458,46	1595,37
458,67	1447,91
458,87	1570,79
459,07	1529,83
459,28	1474,54
459,48	1535,98
459,68	1390,57
459,89	1531,88
460,09	1538,02
460,29	1630,18
460,50	1433,58
460,70	1474,54
460,90	1497,07
461,11	1466,35
461,31	1548,26
461,51	1497,07
461,72	1505,26
461,92	1546,22
462,12	1529,83
462,32	1476,59
462,53	1542,12
462,73	2023,39
462,93	1368,04
463,14	1589,22
463,34	1439,72
463,54	1529,83
463,75	1595,37
463,95	1423,34
464,15	1621,99
464,36	1523,69
464,56	1595,37
464,76	1484,78
464,96	1466,35
465,17	1505,26
465,37	1458,15
465,57	1523,69
465,78	1554,41
465,98	1501,16
466,18	1499,11
466,39	1521,64
466,59	1497,07
466,79	1488,87
466,99	1521,64
467,20	1490,92
467,40	1464,30
467,60	1472,49
467,81	1441,77
468,01	1566,70
468,21	1472,49
468,41	1505,26
468,62	1603,56
468,82	1497,07
469,02	1505,26
469,22	1456,11
469,43	1447,91
469,63	1447,91
469,83	1529,83
470,04	1542,12
470,24	1464,30
470,44	1472,49
470,64	1497,07
470,85	1513,45
471,05	1482,73
471,25	1460,20
471,45	1476,59
471,66	1480,68
471,86	1513,45
472,06	1513,45
472,26	1513,45
472,47	1474,54
472,67	1595,37
472,87	1546,22
473,07	1540,07
473,28	1497,07
473,48	1556,46
473,68	1513,45
473,88	1533,93
474,09	1439,72
474,29	1554,41
474,49	1581,03
474,69	1513,45
474,90	1464,30
475,10	1509,35
475,30	1583,08
475,50	1611,75
475,70	1525,74
475,91	1531,88
476,11	1490,92
476,31	1554,41
476,51	1505,26
476,72	1499,11
476,92	1472,49
477,12	1482,73
477,32	1431,53
477,53	1505,26
477,73	1464,30
477,93	1538,02
478,13	1505,26
478,33	1404,91
478,54	1439,72
478,74	1525,74
478,94	1505,26
479,14	1472,49
479,34	1544,17
479,55	1595,37
479,75	1513,45
479,95	1466,35
480,15	1499,11
480,35	1546,22
480,56	1564,65
480,76	1507,30
480,96	1441,77
481,16	1472,49
481,36	1447,91
481,57	1476,59
481,77	1417,19
481,97	1447,91
482,17	1400,81
482,37	1613,80
482,58	1540,07
482,78	1484,78
482,98	1513,45
483,18	1433,58
483,38	1542,12
483,58	1443,82
483,79	1578,98
483,99	1488,87
484,19	1456,11
484,39	1505,26
484,59	1525,74
484,80	1540,07
485,00	1492,97
485,20	1447,91
485,40	1542,12
485,60	1558,50
485,80	1517,54
486,01	1523,69
486,21	1480,68
486,41	1652,71
486,61	1570,79
486,81	1521,64
487,01	1456,11
487,22	1562,60
487,42	1513,45
487,62	1468,39
487,82	1523,69
488,02	1497,07
488,22	1611,75
488,42	1595,37
488,63	1587,18
488,83	1497,07
489,03	1472,49
489,23	1607,66
489,43	1490,92
489,63	1570,79
489,83	1521,64
490,04	1521,64
490,24	1523,69
490,44	1515,50
490,64	1439,72
490,84	1439,72
491,04	1646,57
491,24	1558,50
491,44	1523,69
491,65	1578,98
491,85	1529,83
492,05	1507,30
492,25	1458,15
492,45	1513,45
492,65	1556,46
492,85	1554,41
493,05	1501,16
493,26	1480,68
493,46	1466,35
493,66	1595,37
493,86	1402,86
494,06	1521,64
494,26	1546,22
494,46	1595,37
494,66	1505,26
494,86	1587,18
495,07	1488,87
495,27	1480,68
495,47	1503,21
495,67	1441,77
495,87	1574,89
496,07	1474,54
496,27	1501,16
496,47	1501,16
496,67	1482,73
496,87	1423,34
497,08	1501,16
497,28	1540,07
497,48	1474,54
497,68	1509,35
497,88	1435,63
498,08	1464,30
498,28	1548,26
498,48	1460,20
498,68	1413,10
498,88	1497,07
499,08	1521,64
499,29	1548,26
499,49	1501,16
499,69	1538,02
499,89	1578,98
500,09	1466,35
500,29	1490,92
500,49	1554,41
500,69	1644,52
500,89	1546,22
501,09	1464,30
501,29	1505,26
501,49	1406,95
501,69	1488,87
501,89	1521,64
502,09	1572,84
502,30	1521,64
502,50	1554,41
502,70	1529,83
502,90	1554,41
503,10	1490,92
503,30	1472,49
503,50	1460,20
503,70	1521,64
503,90	1546,22
504,10	1572,84
504,30	1464,30
504,50	1443,82
504,70	1443,82
504,90	1447,91
505,10	1507,30
505,30	1556,46
505,50	1458,15
505,70	1499,11
505,90	1492,97
506,10	1591,27
506,30	1521,64
506,50	1474,54
506,70	1480,68
506,90	1509,35
507,11	1441,77
507,31	1562,60
507,51	1441,77
507,71	1630,18
507,91	1458,15
508,11	1546,22
508,31	1525,74
508,51	1488,87
508,71	1474,54
508,91	1474,54
509,11	1425,39
509,31	1554,41
509,51	1488,87
509,71	1542,12
509,91	1497,07
510,11	1476,59
510,31	1499,11
510,51	1513,45
510,71	1538,02
510,91	1462,25
511,11	1591,27
511,31	1636,33
511,51	1480,68
511,71	1488,87
511,91	1503,21
512,11	1505,26
512,31	1433,58
512,51	1538,02
512,71	1546,22
512,91	1505,26
513,11	1554,41
513,31	1472,49
513,51	1531,88
513,71	1482,73
513,91	1540,07
514,11	1638,38
514,31	1529,83
514,51	1564,65
514,71	1488,87
514,90	1441,77
515,10	1529,83
515,30	1521,64
515,50	1531,88
515,70	1538,02
515,90	1452,01
516,10	1562,60
516,30	1384,43
516,50	1523,69
516,70	1509,35
516,90	1490,92
517,10	1425,39
517,30	1564,65
517,50	1501,16
517,70	1415,15
517,90	1548,26
518,10	1458,15
518,30	1619,94
518,50	1488,87
518,70	1484,78
518,90	1515,50
519,10	1456,11
519,30	1513,45
519,50	1505,26
519,69	1490,92
519,89	1499,11
520,09	1488,87
520,29	1490,92
520,49	1499,11
520,69	1425,39
520,89	1480,68
521,09	1538,02
521,29	1906,66
521,49	1439,72
521,69	1513,45
521,89	1472,49
522,09	1507,30
522,29	1529,83
522,48	1615,85
522,68	1490,92
522,88	1570,79
523,08	1652,71
523,28	1587,18
523,48	1599,46
523,68	1439,72
523,88	1599,46
524,08	1503,21
524,28	1488,87
524,48	1554,41
524,68	1550,31
524,87	1525,74
525,07	1476,59
525,27	1587,18
525,47	1439,72
525,67	1521,64
525,87	1443,82
526,07	1548,26
526,27	1490,92
526,47	1505,26
526,67	1540,07
526,86	1417,19
527,06	1497,07
527,26	1529,83
527,46	1509,35
527,66	1595,37
527,86	1581,03
528,06	1406,95
528,26	1589,22
528,46	1439,72
528,65	1431,53
528,85	1456,11
529,05	1484,78
529,25	1499,11
529,45	1476,59
529,65	1523,69
529,85	1546,22
530,05	1458,15
530,24	1570,79
530,44	1406,95
530,64	1531,88
530,84	1472,49
531,04	1456,11
531,24	1501,16
531,44	1492,97
531,63	1540,07
531,83	1583,08
532,03	1533,93
532,23	1540,07
532,43	1581,03
532,63	1499,11
532,83	1499,11
533,02	1562,60
533,22	1548,26
533,42	1497,07
533,62	1488,87
533,82	1480,68
534,02	1509,35
534,22	1505,26
534,41	1456,11
534,61	1505,26
534,81	1531,88
535,01	1531,88
535,21	1519,59
535,41	1497,07
535,60	1464,30
535,80	1476,59
536,00	1460,20
536,20	1599,46
536,40	1533,93
536,60	1513,45
536,79	1538,02
536,99	1468,39
537,19	1574,89
537,39	1527,78
537,59	1449,96
537,78	1458,15
537,98	1578,98
538,18	1425,39
538,38	1613,80
538,58	1472,49
538,77	1513,45
538,97	1462,25
539,17	1589,22
539,37	1456,11
539,57	1513,45
539,77	1529,83
539,96	1521,64
540,16	1562,60
540,36	1505,26
540,56	1521,64
540,76	1466,35
540,95	1548,26
541,15	1554,41
541,35	1636,33
541,55	1605,61
541,74	1523,69
541,94	1583,08
542,14	1646,57
542,34	1548,26
542,54	1570,79
542,73	1628,14
542,93	1562,60
543,13	1562,60
543,33	1605,61
543,53	1505,26
543,72	1542,12
543,92	1523,69
544,12	1570,79
544,32	1611,75
544,51	1599,46
544,71	1562,60
544,91	1531,88
545,11	1546,22
545,30	1636,33
545,50	1564,65
545,70	1624,04
545,90	1648,61
546,10	1613,80
546,29	1802,21
546,49	1712,10
546,69	1646,57
546,89	1669,09
547,08	1636,33
547,28	1628,14
547,48	1595,37
547,68	1640,42
547,87	1531,88
548,07	1472,49
548,27	1546,22
548,47	1548,26
548,66	1546,22
548,86	1564,65
549,06	1581,03
549,25	1572,84
549,45	1628,14
549,65	1595,37
549,85	1619,94
550,04	1566,70
550,24	1499,11
550,44	1531,88
550,64	1587,18
550,83	1578,98
551,03	1656,81
551,23	1449,96
551,43	1583,08
551,62	1527,78
551,82	1578,98
552,02	1611,75
552,21	1490,92
552,41	1619,94
552,61	1603,56
552,81	1556,46
553,00	1562,60
553,20	1464,30
553,40	1480,68
553,59	1562,60
553,79	1546,22
553,99	1529,83
554,18	1529,83
554,38	1490,92
554,58	1441,77
554,78	1548,26
554,97	1490,92
555,17	1521,64
555,37	1476,59
555,56	1538,02
555,76	1523,69
555,96	1603,56
556,15	1570,79
556,35	1497,07
556,55	1507,30
556,74	1452,01
556,94	1646,57
557,14	1439,72
557,34	1554,41
557,53	1595,37
557,73	1521,64
557,93	1521,64
558,12	1540,07
558,32	1521,64
558,52	1578,98
558,71	1499,11
558,91	1505,26
559,11	1581,03
559,30	1515,50
559,50	1492,97
559,70	1497,07
559,89	1488,87
560,09	1548,26
560,29	1497,07
560,48	1554,41
560,68	1515,50
560,88	1531,88
561,07	1468,39
561,27	1484,78
561,46	1628,14
561,66	1562,60
561,86	1456,11
562,05	1533,93
562,25	1505,26
562,45	1531,88
562,64	1437,67
562,84	1572,84
563,04	1581,03
563,23	1546,22
563,43	1538,02
563,63	1572,84
563,82	1531,88
564,02	1605,61
564,21	1525,74
564,41	1599,46
564,61	1683,43
564,80	1509,35
565,00	1538,02
565,20	1523,69
565,39	1521,64
565,59	1460,20
565,78	1523,69
565,98	1636,33
566,18	1529,83
566,37	1652,71
566,57	1433,58
566,77	1576,94
566,96	1497,07
567,16	1562,60
567,35	1554,41
567,55	1630,18
567,75	1673,19
567,94	1505,26
568,14	1585,13
568,33	1542,12
568,53	1456,11
568,73	1669,09
568,92	1513,45
569,12	1542,12
569,31	1538,02
569,51	1484,78
569,71	1595,37
569,90	1550,31
570,10	1540,07
570,29	1673,19
570,49	1548,26
570,69	1595,37
570,88	1449,96
571,08	1525,74
571,27	1531,88
571,47	1570,79
571,66	1515,50
571,86	1497,07
572,06	1562,60
572,25	1521,64
572,45	1538,02
572,64	1564,65
572,84	1570,79
573,03	1630,18
573,23	1595,37
573,43	1632,23
573,62	1595,37
573,82	1628,14
574,01	1513,45
574,21	1497,07
574,40	1583,08
574,60	1578,98
574,79	1558,50
574,99	1595,37
575,19	1611,75
575,38	1619,94
575,58	1564,65
575,77	1658,85
575,97	1599,46
576,16	1589,22
576,36	1556,46
576,55	1644,52
576,75	1587,18
576,94	1597,42
577,14	1628,14
577,34	1587,18
577,53	1574,89
577,73	1578,98
577,92	1677,29
578,12	1742,82
578,31	1529,83
578,51	1628,14
578,70	1669,09
578,90	1808,36
579,09	1636,33
579,29	1652,71
579,48	1597,42
579,68	1701,86
579,87	1726,44
580,07	1669,09
580,26	1654,76
580,46	1636,33
580,65	1644,52
580,85	1652,71
581,04	1771,49
581,24	1572,84
581,43	1710,05
581,63	1624,04
581,82	1728,49
582,02	1679,33
582,21	1636,33
582,41	1673,19
582,60	1621,99
582,80	1742,82
582,99	1669,09
583,19	1804,26
583,38	1685,48
583,58	1701,86
583,77	1843,17
583,97	1628,14
584,16	1857,51
584,36	1716,20
584,55	1710,05
584,75	1775,59
584,94	1751,01
585,14	1816,55
585,33	1746,92
585,53	1800,16
585,72	1730,53
585,92	1906,66
586,11	1738,73
586,31	1914,85
586,50	1861,60
586,70	1808,36
586,89	1783,78
587,09	1841,12
587,28	1882,08
587,47	1914,85
587,67	1873,89
587,86	1898,47
588,06	1843,17
588,25	1916,90
588,45	1902,56
588,64	1830,88
588,84	1898,47
589,03	1988,58
589,23	1826,79
589,42	1982,43
589,61	1980,39
589,81	2045,92
590,00	2033,63
590,20	1908,71
590,39	1947,62
590,59	2033,63
590,78	1998,82
590,98	2017,25
591,17	2023,39
591,36	2095,07
591,56	2070,50
591,75	2162,66
591,95	1982,43
592,14	2123,74
592,34	2097,12
592,53	2242,53
592,72	2131,94
592,92	2269,15
593,11	2234,33
593,31	2234,33
593,50	2205,66
593,69	2334,68
593,89	2308,06
594,08	2299,87
594,28	2365,40
594,47	2324,44
594,67	2375,64
594,86	2324,44
595,05	2324,44
595,25	2430,94
595,44	2316,25
595,64	2463,71
595,83	2512,86
596,02	2480,09
596,22	2426,84
596,41	2484,19
596,61	2539,48
596,80	2588,63
596,99	2521,05
597,19	2623,45
597,38	2627,54
597,58	2754,52
597,77	2734,04
597,96	2705,37
598,16	2809,81
598,35	2918,36
598,54	2861,01
598,74	2861,01
598,93	2906,07
599,13	2938,84
599,32	2901,97
599,51	2873,30
599,71	3139,54
599,90	3061,71
600,09	2971,60
600,29	3143,63
600,48	3274,70
600,68	3401,68
600,87	3307,47
601,06	3407,82
601,26	3311,57
601,45	3530,70
601,64	3422,16
601,84	3635,14
602,03	3594,19
602,22	3684,30
602,42	3659,72
602,61	3741,64
602,80	3706,82
603,00	3954,63
603,19	3721,16
603,38	3995,59
603,58	4102,08
603,77	4128,70
603,96	3995,59
604,16	4153,28
604,35	4233,15
604,54	4476,86
604,74	4380,61
604,93	4470,72
605,12	4462,52
605,32	4642,75
605,51	4521,92
605,70	4874,17
605,90	4868,02
606,09	4806,58
606,28	4929,46
606,48	5023,67
606,67	5060,53
606,86	5167,03
607,06	5345,20
607,25	5406,64
607,44	5480,36
607,64	5556,14
607,83	5816,23
608,02	5724,07
608,22	5949,35
608,41	6043,56
608,60	5953,45
608,79	6371,23
608,99	6285,22
609,18	6639,51
609,37	6684,57
609,57	6821,78
609,76	6887,32
609,95	6946,71
610,15	7264,15
610,34	7329,68
610,53	7452,56
610,72	7731,08
610,92	8052,61
611,11	8093,57
611,30	8304,51
611,50	8398,72
611,69	8798,07
611,88	8879,99
612,07	9099,13
612,27	9123,70
612,46	9312,11
612,65	9414,51
612,84	9652,08
613,04	9989,99
613,23	10004,33
613,42	10186,60
613,62	10614,62
613,81	10655,58
614,00	10927,96
614,19	11138,90
614,39	11233,11
614,58	11747,15
614,77	11943,75
614,96	12040,01
615,16	12554,05
615,35	12670,78
615,54	12773,18
615,73	12949,31
615,93	13436,72
616,12	14214,95
616,31	13981,48
616,50	14534,43
616,70	14624,54
616,89	15472,40
617,08	15791,89
617,27	15949,58
617,47	16105,23
617,66	16762,62
617,85	17250,04
618,04	17659,63
618,23	17762,03
618,43	18304,74
618,62	18933,47
618,81	19281,63
619,00	19597,01
619,20	19711,70
619,39	20092,62
619,58	21010,11
619,77	21034,69
619,96	22019,76
620,16	22398,63
620,35	22935,20
620,54	23117,47
620,73	23746,20
620,93	24848,00
621,12	25065,09
621,31	25513,59
621,50	25878,13
621,69	26617,45
621,89	26592,87
622,08	27668,06
622,27	28048,98
622,46	28575,31
622,65	29195,84
622,85	29810,23
623,04	30643,76
623,23	30885,42
623,42	31223,33
623,61	32093,72
623,81	32998,92
624,00	33197,57
624,19	34262,52
624,38	35083,75
624,57	35048,94
624,76	36279,77
624,96	36728,27
625,15	36978,12
625,34	38065,60
625,53	38575,54
625,72	39878,05
625,91	40291,74
626,11	41078,16
626,30	41178,51
626,49	42331,51
626,68	43404,65
626,87	43804,00
627,06	44508,50
627,26	45002,07
627,45	46165,31
627,64	46568,76
627,83	47310,13
628,02	48395,55
628,21	48344,35
628,41	49507,60
628,60	49507,60
628,79	50285,82
628,98	50932,98
629,17	51510,51
629,36	51207,41
629,55	51676,40
629,75	51700,97
629,94	51473,65
630,13	52090,09
630,32	51326,19
630,51	51137,78
630,70	50703,61
630,89	51088,63
631,09	50101,51
631,28	50126,08
631,47	48766,23
631,66	48364,83
631,85	47406,38
632,04	46292,29
632,23	45595,98
632,42	44391,77
632,62	43517,29
632,81	41909,63
633,00	40676,76
633,19	38458,81
633,38	38069,69
633,57	36439,51
633,76	34936,30
633,95	33793,53
634,14	32491,02
634,34	30860,84
634,53	29924,92
634,72	28917,32
634,91	27610,71
635,10	26426,99
635,29	25114,24
635,48	24268,43
635,67	22875,81
635,86	22060,72
636,05	21149,37
636,24	20004,56
636,44	19078,88
636,63	18282,22
636,82	17921,77
637,01	17151,74
637,20	16549,64
637,39	15589,14
637,58	14968,60
637,77	14563,11
637,96	14192,42
638,15	13522,74
638,34	12887,87
638,53	12670,78
638,73	12064,58
638,92	11691,85
639,11	11609,93
639,30	11056,98
639,49	10786,65
639,68	10418,02
639,87	10024,81
640,06	9893,74
640,25	9598,83
640,44	9207,67
640,63	9109,36
640,82	8724,35
641,01	8626,04
641,20	8345,47
641,39	8042,37
641,58	7856,01
641,77	7583,63
641,96	7532,43
642,16	7266,19
642,35	7124,88
642,54	6975,38
642,73	6666,14
642,92	6666,14
643,11	6487,96
643,30	6223,78
643,49	6111,14
643,68	6012,84
643,87	5908,39
644,06	5732,26
644,25	5535,66
644,44	5373,87
644,63	5259,18
644,82	5136,31
645,01	4851,64
645,20	4841,40
645,39	4782,01
645,58	4560,83
645,77	4440,00
645,96	4323,26
646,15	4241,34
646,34	4245,44
646,53	3946,44
646,72	4020,16
646,91	3786,69
647,10	3760,07
647,29	3635,14
647,48	3629,00
647,67	3520,46
647,86	3366,86
648,05	3340,24
648,24	3348,43
648,43	3262,41
648,62	3069,91
648,81	3088,34
649,00	2932,69
649,19	3055,57
649,38	2893,78
649,57	2873,30
649,76	2811,86
649,95	2742,23
650,14	2766,81
650,33	2652,12
650,52	2611,16
650,71	2430,94
650,90	2496,47
651,09	2480,09
651,28	2494,43
651,47	2389,98
651,66	2310,11
651,85	2308,06
652,04	2349,02
652,23	2238,43
652,42	2230,24
652,61	2213,85
652,80	2318,30
652,99	2168,80
653,17	2176,99
653,36	2080,74
653,55	2154,46
653,74	2062,30
653,93	2111,46
654,12	2113,50
654,31	2054,11
654,50	1988,58
654,69	2013,15
654,88	2082,78
655,07	1996,77
655,26	1974,24
655,45	1898,47
655,64	1982,43
655,83	1947,62
656,02	1955,81
656,21	1943,52
656,39	1906,66
656,58	1959,91
656,77	1834,98
656,96	1892,32
657,15	1832,93
657,34	1859,56
657,53	1857,51
657,72	1865,70
657,91	1771,49
658,10	1726,44
658,29	1824,74
658,48	1810,40
658,67	1818,60
658,85	1865,70
659,04	1726,44
659,23	1763,30
659,42	1759,21
659,61	1777,64
659,80	1804,26
659,99	1734,63
660,18	1728,49
660,37	1800,16
660,56	1712,10
660,74	1714,15
660,93	1751,01
661,12	1687,53
661,31	1652,71
661,50	1808,36
661,69	1644,52
661,88	1701,86
662,07	1693,67
662,26	1816,55
662,44	1701,86
662,63	1693,67
662,82	1720,29
663,01	1621,99
663,20	1613,80
663,39	1718,25
663,58	1669,09
663,77	1685,48
663,95	1708,01
664,14	1660,90
664,33	1613,80
664,52	1603,56
664,71	1644,52
664,90	1603,56
665,09	1644,52
665,27	1685,48
665,46	1558,50
665,65	1621,99
665,84	1603,56
666,03	1697,77
666,22	1654,76
666,41	1654,76
666,59	1572,84
666,78	1558,50
666,97	1558,50
667,16	1603,56
667,35	1607,66
667,54	1578,98
667,72	1628,14
667,91	1605,61
668,10	1589,22
668,29	1466,35
668,48	1531,88
668,67	1603,56
668,85	1542,12
669,04	1669,09
669,23	1538,02
669,42	1578,98
669,61	1578,98
669,80	1619,94
669,98	1490,92
670,17	1554,41
670,36	1538,02
670,55	1513,45
670,74	1566,70
670,92	1613,80
671,11	1523,69
671,30	1538,02
671,49	1628,14
671,68	1640,42
671,86	1505,26
672,05	1581,03
672,24	1603,56
672,43	1548,26
672,62	1513,45
672,80	1558,50
672,99	1607,66
673,18	1570,79
673,37	1513,45
673,56	1619,94
673,74	1550,31
673,93	1558,50
674,12	1587,18
674,31	1488,87
674,50	1447,91
674,68	1529,83
674,87	1564,65
675,06	1554,41
675,25	1497,07
675,43	1472,49
675,62	1456,11
675,81	1490,92
676,00	1542,12
676,19	1644,52
676,37	1521,64
676,56	1556,46
676,75	1554,41
676,94	1540,07
677,12	1587,18
677,31	1521,64
677,50	1538,02
677,69	1497,07
677,87	1482,73
678,06	1583,08
678,25	1521,64
678,44	1495,02
678,62	1466,35
678,81	1517,54
679,00	1538,02
679,19	1566,70
679,37	1472,49
679,56	1513,45
679,75	1562,60
679,94	1589,22
680,12	1578,98
680,31	1501,16
680,50	1638,38
680,68	1574,89
680,87	1517,54
681,06	1605,61
681,25	1554,41
681,43	1572,84
681,62	1443,82
681,81	1554,41
682,00	1501,16
682,18	1554,41
682,37	1554,41
682,56	1456,11
682,74	1566,70
682,93	1597,42
683,12	1466,35
683,31	1466,35
683,49	1488,87
683,68	1562,60
683,87	1497,07
684,05	1507,30
684,24	1570,79
684,43	1474,54
684,61	1523,69
684,80	1464,30
684,99	1488,87
685,18	1415,15
685,36	1497,07
685,55	1509,35
685,74	1513,45
685,92	1505,26
686,11	1513,45
686,30	1435,63
686,48	1468,39
686,67	1492,97
686,86	1583,08
687,04	1472,49
687,23	1447,91
687,42	1513,45
687,60	1495,02
687,79	1474,54
687,98	1505,26
688,16	1589,22
688,35	1529,83
688,54	1628,14
688,72	1984,48
688,91	1546,22
689,10	1517,54
689,28	1529,83
689,47	1554,41
689,66	1581,03
689,84	1497,07
690,03	1529,83
690,22	1550,31
690,40	1562,60
690,59	1595,37
690,78	1423,34
690,96	1574,89
691,15	1423,34
691,34	1478,63
691,52	1517,54
691,71	1521,64
691,89	1556,46
692,08	1435,63
692,27	1488,87
692,45	1435,63
692,64	1490,92
692,83	1464,30
693,01	1488,87
693,20	1542,12
693,38	1472,49
693,57	1490,92
693,76	1554,41
693,94	1566,70
694,13	1591,27
694,32	1472,49
694,50	1585,13
694,69	1529,83
694,87	1513,45
695,06	1521,64
695,25	1431,53
695,43	1509,35
695,62	1529,83
695,80	1591,27
695,99	1447,91
696,18	1525,74
696,36	1513,45
696,55	1566,70
696,73	1484,78
696,92	1554,41
697,11	1464,30
697,29	1521,64
697,48	1472,49
697,66	1605,61
697,85	1497,07
698,04	1517,54
698,22	1613,80
698,41	1460,20
698,59	1384,43
698,78	1415,15
698,96	1488,87
699,15	1644,52
699,34	1472,49
699,52	1472,49
699,71	1552,36
699,89	1562,60
700,08	1562,60
700,26	1531,88
700,45	1538,02
700,64	1480,68
700,82	1464,30
701,01	1447,91
701,19	1515,50
701,38	1603,56
701,56	1548,26
701,75	1464,30
701,93	1464,30
702,12	1480,68
702,31	1521,64
702,49	1521,64
702,68	1497,07
702,86	1474,54
703,05	1488,87
703,23	1449,96
703,42	1685,48
703,60	1546,22
703,79	1509,35
703,97	1513,45
704,16	1564,65
704,34	1556,46
704,53	1587,18
704,72	1497,07
704,90	1482,73
705,09	1488,87
705,27	1529,83
705,46	1484,78
705,64	1581,03
705,83	1497,07
706,01	1423,34
706,20	1447,91
706,38	1538,02
706,57	1587,18
706,75	1480,68
706,94	1646,57
707,12	1476,59
707,31	1509,35
707,49	1525,74
707,68	1607,66
707,86	1533,93
708,05	1550,31
708,23	1611,75
708,42	1662,95
708,60	1546,22
708,79	1605,61
708,97	1529,83
709,16	1599,46
709,34	1533,93
709,53	1472,49
709,71	1587,18
709,90	1550,31
710,08	1720,29
710,27	1578,98
710,45	1554,41
710,64	1550,31
710,82	1423,34
711,00	1884,13
711,19	1619,94
711,37	1468,39
711,56	1484,78
711,74	1482,73
711,93	1513,45
712,11	1583,08
712,30	1556,46
712,48	1464,30
712,67	1570,79
712,85	1558,50
713,04	1562,60
713,22	1581,03
713,40	1531,88
713,59	1449,96
713,77	1472,49
713,96	1497,07
714,14	1628,14
714,33	1554,41
714,51	1572,84
714,70	1497,07
714,88	1597,42
715,06	1476,59
715,25	1470,44
715,43	1529,83
715,62	1439,72
715,80	1468,39
715,99	1476,59
716,17	1546,22
716,35	1505,26
716,54	1525,74
716,72	1507,30
716,91	1431,53
717,09	1652,71
717,28	1501,16
717,46	1652,71
717,64	1570,79
717,83	1648,61
718,01	1431,53
718,20	1521,64
718,38	1443,82
718,56	1456,11
718,75	1578,98
718,93	1558,50
719,12	1476,59
719,30	1497,07
719,48	1447,91
719,67	1578,98
719,85	1474,54
720,04	1480,68
720,22	1423,34
720,40	1497,07
720,59	1554,41
720,77	1488,87
720,96	1599,46
721,14	1480,68
721,32	1460,20
721,51	1458,15
721,69	1501,16
721,87	1497,07
722,06	1578,98
722,24	1478,63
722,43	1529,83
722,61	1509,35
722,79	1482,73
722,98	1488,87
723,16	1562,60
723,34	1578,98
723,53	1456,11
723,71	1564,65
723,90	1562,60
724,08	1484,78
724,26	1497,07
724,45	1562,60
724,63	1531,88
724,81	1501,16
725,00	1497,07
725,18	1529,83
725,36	1439,72
725,55	1538,02
725,73	1472,49
725,91	1515,50
726,10	1523,69
726,28	1570,79
726,46	1542,12
726,65	1517,54
726,83	1505,26
727,01	1478,63
727,20	1468,39
727,38	1529,83
727,56	1554,41
727,75	1497,07
727,93	1411,05
728,11	1464,30
728,30	1507,30
728,48	1413,10
728,66	1529,83
728,85	1423,34
729,03	1523,69
729,21	1509,35
729,40	1531,88
729,58	1595,37
729,76	1458,15
729,94	1529,83
730,13	1578,98
730,31	1472,49
730,49	1392,62
730,68	1523,69
730,86	1476,59
731,04	1546,22
731,23	1517,54
731,41	1513,45
731,59	1423,34
731,77	1515,50
731,96	1521,64
732,14	1570,79
732,32	1560,55
732,51	1431,53
732,69	1425,39
732,87	1433,58
733,05	1648,61
733,24	1472,49
733,42	1570,79
733,60	1415,15
733,79	1474,54
733,97	1591,27
734,15	1460,20
734,33	1517,54
734,52	1531,88
734,70	1497,07
734,88	1587,18
735,06	1480,68
735,25	1513,45
735,43	1513,45
735,61	1384,43
735,79	1484,78
735,98	1490,92
736,16	1918,95
736,34	1499,11
736,52	1521,64
736,71	1492,97
736,89	1480,68
737,07	1517,54
737,25	1472,49
737,44	1488,87
737,62	1572,84
737,80	1550,31
737,98	1447,91
738,17	1513,45
738,35	1521,64
738,53	1562,60
738,71	1574,89
738,89	1488,87
739,08	1464,30
739,26	1404,91
739,44	1605,61
739,62	1501,16
739,81	1521,64
739,99	1490,92
740,17	1513,45
740,35	1425,39
740,53	1564,65
740,72	1456,11
740,90	1529,83
741,08	1488,87
741,26	1447,91
741,44	1435,63
741,63	1490,92
741,81	1619,94
741,99	1538,02
742,17	1523,69
742,35	1546,22
742,54	1460,20
742,72	1628,14
742,90	1538,02
743,08	1505,26
743,26	1466,35
743,45	1578,98
743,63	1538,02
743,81	1513,45
743,99	1458,15
744,17	1492,97
744,35	1488,87
744,54	1624,04
744,72	1562,60
744,90	1480,68
745,08	1507,30
745,26	1546,22
745,44	1466,35
745,63	1490,92
745,81	1484,78
745,99	1538,02
746,17	1497,07
746,35	1458,15
746,53	1464,30
746,72	1472,49
746,90	1546,22
747,08	1538,02
747,26	1439,72
747,44	1589,22
747,62	1562,60
747,81	1499,11
747,99	1398,76
748,17	1484,78
748,35	1497,07
748,53	1464,30
748,71	1501,16
748,89	1513,45
749,07	1589,22
749,26	1466,35
749,44	1538,02
749,62	1564,65
749,80	1372,14
749,98	1466,35
750,16	1531,88
750,34	1562,60
750,52	1449,96
750,71	1431,53
750,89	1511,40
751,07	1570,79
751,25	1423,34
751,43	1458,15
751,61	1488,87
751,79	1468,39
751,97	1458,15
752,15	1431,53
752,34	1564,65
752,52	1452,01
752,70	1542,12
752,88	1513,45
753,06	1464,30
753,24	1480,68
753,42	1439,72
753,60	1538,02
753,78	1484,78
753,96	1480,68
754,15	1562,60
754,33	1521,64
754,51	1529,83
754,69	1460,20
754,87	1570,79
755,05	1507,30
755,23	1531,88
755,41	1433,58
755,59	1558,50
755,77	1464,30
755,95	1447,91
756,13	1538,02
756,31	1404,91
756,50	1505,26
756,68	1480,68
756,86	1538,02
757,04	1427,43
757,22	1636,33
757,40	1480,68
757,58	1415,15
757,76	1591,27
757,94	1482,73
758,12	1607,66
758,30	1501,16
758,48	1413,10
758,66	1456,11
758,84	1621,99
759,02	1562,60
759,20	1525,74
759,38	1548,26
759,56	1488,87
759,74	1660,90
759,92	1472,49
760,10	1521,64
760,28	1472,49
760,47	1433,58
760,65	1431,53
760,83	1505,26
761,01	1433,58
761,19	1538,02
761,37	1435,63
761,55	1415,15
761,73	1497,07
761,91	1505,26
762,09	1394,67
762,27	1484,78
762,45	1562,60
762,63	1474,54
762,81	1533,93
762,99	1595,37
763,17	1570,79
763,35	1533,93
763,53	1513,45
763,71	1533,93
763,89	1808,36
764,07	1517,54
764,25	1636,33
764,43	1554,41
764,61	1576,94
764,79	1488,87
764,97	1366,00
765,15	1656,81
765,33	1488,87
765,51	1538,02
765,69	1554,41
765,87	1439,72
766,05	1531,88
766,23	1546,22
766,41	1578,98
766,58	1581,03
766,76	1439,72
766,94	1554,41
767,12	1499,11
767,30	1554,41
767,48	1472,49
767,66	1505,26
767,84	1538,02
768,02	1628,14
768,20	1554,41
768,38	1570,79
768,56	1544,17
768,74	1507,30
768,92	1384,43
769,10	1523,69
769,28	1497,07
769,46	1562,60
769,64	1492,97
769,82	1492,97
770,00	1542,12
770,18	1449,96
770,36	1554,41
770,53	1525,74
770,71	1513,45
770,89	1538,02
771,07	1456,11
771,25	1425,39
771,43	1523,69
771,61	1546,22
771,79	1538,02
771,97	1466,35
772,15	1554,41
772,33	1497,07
772,51	1490,92
772,69	1480,68
772,86	1431,53
773,04	1505,26
773,22	1472,49
773,40	1456,11
773,58	1435,63
773,76	1468,39
773,94	1357,80
774,12	1484,78
774,30	1490,92
774,48	1501,16
774,65	1497,07
774,83	1447,91
775,01	1554,41
775,19	1548,26
775,37	1497,07
775,55	1546,22
775,73	1546,22
775,91	1480,68
776,09	1550,31
776,26	1439,72
776,44	1521,64
776,62	1538,02
776,80	1497,07
776,98	1472,49
777,16	1472,49
777,34	1578,98
777,52	1396,71
777,69	1560,55
777,87	1523,69
778,05	1546,22
778,23	1480,68
778,41	1513,45
778,59	1538,02
778,77	1472,49
778,94	1458,15
779,12	1490,92
779,30	1486,83
779,48	1515,50
779,66	1578,98
779,84	1550,31
780,02	1492,97
780,19	1525,74
780,37	1538,02
780,55	1570,79
780,73	1449,96
780,91	1578,98
781,09	1597,42
781,26	1558,50
781,44	1525,74
781,62	1458,15
781,80	1527,78
781,98	1492,97
782,16	1439,72
782,33	1509,35
782,51	1513,45
782,69	1499,11
782,87	1538,02
783,05	1523,69
783,22	1687,53
783,40	1488,87
783,58	1472,49
783,76	1529,83
783,94	1531,88
784,12	1509,35
784,29	1480,68
784,47	1466,35
784,65	1499,11
784,83	1570,79
785,01	1533,93
785,18	1531,88
785,36	1464,30
785,54	1603,56
785,72	1464,30
785,89	1589,22
786,07	1464,30
786,25	1497,07
786,43	1466,35
786,61	1480,68
786,78	1415,15
786,96	1472,49
787,14	1611,75
787,32	1464,30
787,49	1548,26
787,67	1480,68
787,85	1452,01
788,03	1507,30
788,21	1587,18
788,38	1447,91
788,56	1529,83
788,74	1480,68
788,92	1562,60
789,09	1499,11
789,27	1482,73
789,45	1464,30
789,63	1521,64
789,80	1464,30
789,98	1546,22
790,16	1570,79
790,34	1460,20
790,51	1507,30
790,69	1482,73
790,87	1484,78
791,05	1505,26
791,22	1538,02
791,40	1456,11
791,58	1456,11
791,76	1578,98
791,93	1628,14
792,11	1482,73
792,29	1484,78
792,46	1472,49
792,64	1505,26
792,82	1554,41
793,00	1497,07
793,17	1490,92
793,35	1554,41
793,53	1589,22
793,70	1538,02
793,88	1456,11
794,06	1480,68
794,24	1474,54
794,41	1497,07
794,59	1505,26
794,77	1525,74
794,94	1554,41
795,12	1607,66
795,30	1464,30
795,47	1538,02
795,65	1449,96
795,83	1464,30
796,01	1558,50
796,18	1472,49
796,36	1503,21
796,54	1546,22
796,71	1505,26
796,89	1531,88
797,07	1562,60
797,24	1538,02
797,42	1687,53
797,60	1611,75
797,77	1497,07
797,95	1570,79
798,13	1433,58
798,30	1546,22
798,48	1439,72
798,66	1595,37
798,83	1566,70
799,01	1556,46
799,19	1470,44
799,36	1398,76
799,54	1486,83
799,72	1554,41
799,89	1505,26
800,07	1525,74
800,25	1425,39
800,42	1482,73
800,60	1521,64
800,78	1443,82
800,95	1513,45
801,13	1603,56
801,30	1540,07
801,48	1472,49
801,66	1513,45
801,83	1456,11
802,01	1644,52
802,19	1497,07
802,36	1439,72
802,54	1480,68
802,72	1540,07
802,89	1660,90
803,07	1476,59
803,24	1558,50
803,42	1472,49
803,60	1343,47
803,77	1521,64
803,95	1529,83
804,12	1486,83
804,30	1466,35
804,48	1409,00
804,65	1529,83
804,83	1507,30
805,01	1513,45
805,18	1509,35
805,36	1521,64
805,53	1447,91
805,71	1474,54
805,88	1390,57
806,06	1497,07
806,24	1472,49
806,41	1499,11
806,59	1460,20
806,76	1421,29
806,94	1480,68
807,12	1480,68
807,29	1521,64
807,47	1443,82
807,64	1581,03
807,82	1546,22
807,99	1415,15
808,17	1486,83
808,35	1456,11
808,52	1480,68
808,70	1581,03
808,87	1378,28
809,05	1449,96
809,22	1466,35
809,40	1454,06
809,58	1497,07
809,75	1427,43
809,93	1431,53
810,10	1480,68
810,28	1458,15
810,45	1384,43
810,63	1574,89
810,80	1400,81
810,98	1665,00
811,15	1525,74
811,33	1556,46
811,51	1447,91
811,68	1419,24
811,86	1443,82
812,03	1447,91
812,21	1482,73
812,38	1515,50
812,56	1601,51
812,73	1513,45
812,91	1538,02
813,08	1449,96
813,26	1439,72
813,43	1562,60
813,61	1570,79
813,78	1630,18
813,96	1515,50
814,13	1513,45
814,31	1529,83
814,48	1462,25
814,66	1480,68
814,83	1480,68
815,01	1464,30
815,18	1554,41
815,36	1554,41
815,53	1497,07
815,71	1562,60
815,88	1488,87
816,06	1474,54
816,23	1513,45
816,41	1423,34
816,58	1521,64
816,76	1808,36
816,93	1480,68
817,11	1589,22
817,28	1513,45
817,46	1515,50
817,63	1554,41
817,81	1550,31
817,98	1458,15
818,16	1423,34
818,33	1423,34
818,51	1558,50
818,68	1439,72
818,86	1540,07
819,03	1488,87
819,21	1472,49
819,38	1529,83
819,55	1499,11
819,73	1392,62
819,90	1505,26
820,08	1525,74
820,25	1554,41
820,43	1456,11
820,60	1443,82
820,78	1488,87
820,95	1546,22
821,12	1497,07
821,30	1456,11
821,47	1497,07
821,65	1578,98
821,82	1480,68
822,00	1415,15
822,17	1433,58
822,35	1546,22
822,52	1558,50
822,69	1542,12
822,87	1554,41
823,04	1435,63
823,22	1499,11
823,39	1472,49
823,56	1441,77
823,74	1366,00
823,91	1521,64
824,09	1527,78
824,26	1447,91
824,44	1447,91
824,61	1646,57
824,78	1521,64
824,96	1480,68
825,13	1521,64
825,31	1474,54
825,48	1581,03
825,65	1486,83
825,83	1425,39
826,00	1505,26
826,18	1443,82
826,35	1497,07
826,52	1525,74
826,70	1497,07
826,87	1540,07
827,04	1529,83
827,22	1456,11
827,39	1515,50
827,57	1581,03
827,74	1499,11
827,91	1423,34
828,09	1490,92
828,26	1482,73
828,43	1531,88
828,61	1511,40
828,78	1505,26
828,96	1619,94
829,13	1509,35
829,30	1542,12
829,48	1497,07
829,65	1409,00
829,82	1447,91
830,00	1513,45
830,17	1472,49
830,34	1570,79
830,52	1472,49
830,69	1513,45
830,86	1548,26
831,04	1482,73
831,21	1548,26
831,38	1482,73
831,56	1507,30
831,73	1538,02
831,90	1562,60
832,08	1417,19
832,25	1484,78
832,42	1454,06
832,60	1578,98
832,77	1525,74
832,94	1499,11
833,12	1374,19
833,29	1441,77
833,46	1472,49
833,64	1507,30
833,81	1507,30
833,98	1521,64
834,16	1433,58
834,33	1562,60
834,50	1515,50
834,67	1464,30
834,85	1476,59
835,02	1480,68
835,19	1578,98
835,37	1492,97
835,54	1429,48
835,71	1499,11
835,89	1439,72
836,06	1533,93
836,23	1415,15
836,40	1529,83
836,58	1591,27
836,75	1603,56
836,92	1480,68
837,10	1368,04
837,27	1415,15
837,44	1546,22
837,61	1521,64
837,79	1509,35
837,96	1447,91
838,13	1497,07
838,30	1542,12
838,48	1409,00
838,65	1529,83
838,82	1591,27
838,99	1515,50
839,17	1546,22
839,34	1595,37
839,51	1523,69
839,69	1468,39
839,86	1488,87
840,03	1597,42
840,20	1538,02
840,37	1443,82
840,55	1529,83
840,72	1464,30
840,89	1570,79
841,06	1554,41
841,24	1464,30
841,41	1574,89
841,58	1523,69
841,75	1548,26
841,93	1505,26
842,10	1447,91
842,27	1492,97
842,44	1431,53
842,62	1456,11
842,79	1646,57
842,96	1480,68
843,13	1525,74
843,30	1581,03
843,48	1515,50
843,65	1546,22
843,82	1615,85
843,99	1531,88
844,16	1488,87
844,34	1548,26
844,51	1554,41
844,68	1513,45
844,85	1611,75
845,02	1398,76
845,20	1507,30
845,37	1542,12
845,54	1546,22
845,71	1464,30
845,88	1546,22
846,06	1578,98
846,23	1472,49
846,40	1488,87
846,57	1497,07
846,74	1480,68
846,91	1542,12
847,09	1447,91
847,26	1472,49
847,43	1636,33
847,60	1538,02
847,77	1492,97
847,94	1505,26
848,12	1499,11
848,29	1587,18
848,46	1482,73
848,63	1456,11
848,80	1439,72
848,97	1509,35
849,15	1554,41
849,32	1452,01
849,49	1458,15
849,66	1538,02
849,83	1482,73
850,00	1441,77
850,17	1482,73
850,35	1554,41
850,52	1542,12
850,69	1490,92
850,86	1480,68
851,03	1529,83
851,20	1431,53
851,37	1558,50
851,55	1390,57
851,72	1431,53
851,89	1540,07
852,06	1497,07
852,23	1523,69
852,40	1556,46
852,57	1482,73
852,74	1521,64
852,92	1482,73
853,09	1398,76
853,26	1529,83
853,43	1501,16
853,60	1490,92
853,77	1513,45
853,94	1488,87
854,11	1515,50
854,28	1867,75
854,45	1611,75
854,63	1540,07
854,80	1439,72
854,97	1554,41
855,14	1480,68
855,31	1603,56
855,48	1476,59
855,65	1464,30
855,82	1529,83
855,99	1497,07
856,16	1497,07
856,33	1613,80
856,50	1497,07
856,68	1456,11
856,85	1497,07
857,02	1492,97
857,19	1423,34
857,36	1529,83
857,53	1497,07
857,70	1497,07
857,87	1378,28
858,04	1433,58
858,21	1464,30
858,38	1507,30
858,55	1599,46
858,72	1570,79
858,89	1474,54
859,06	1578,98
859,23	1425,39
859,40	1583,08
859,58	1447,91
859,75	1509,35
859,92	1556,46
860,09	1531,88
860,26	1447,91
860,43	1513,45
860,60	1458,15
860,77	1499,11
860,94	1476,59
861,11	1507,30
861,28	1548,26
861,45	1564,65
861,62	1533,93
861,79	1538,02
861,96	1484,78
862,13	1509,35
862,30	1449,96
862,47	1456,11
862,64	1718,25
862,81	1456,11
862,98	1456,11
863,15	1400,81
863,32	1472,49
863,49	1515,50
863,66	1554,41
863,83	1521,64
864,00	1415,15
864,17	1554,41
864,34	1562,60
864,51	1480,68
864,68	1474,54
864,85	1517,54
865,02	1523,69
865,19	1484,78
865,36	1509,35
865,53	1497,07
865,70	1488,87
865,87	1466,35
866,04	1492,97
866,21	1513,45
866,38	1644,52
866,55	1449,96
866,72	1538,02
866,89	1497,07
867,06	1554,41
867,23	1439,72
867,40	1456,11
867,57	1562,60
867,73	1458,15
867,90	1548,26
868,07	1562,60
868,24	1480,68
868,41	1554,41
868,58	1503,21
868,75	1492,97
868,92	1564,65
869,09	1507,30
869,26	1452,01
869,43	1591,27
869,60	1456,11
869,77	1466,35
869,94	1517,54
870,11	1554,41
870,28	1472,49
870,45	1466,35
870,61	1460,20
870,78	1472,49
870,95	1505,26
871,12	1513,45
871,29	1531,88
871,46	1603,56
871,63	1558,50
871,80	1398,76
871,97	1564,65
872,14	1595,37
872,31	1570,79
872,47	1425,39
872,64	1464,30
872,81	1460,20
872,98	1488,87
873,15	1431,53
873,32	1523,69
873,49	1529,83
873,66	1564,65
873,83	1566,70
874,00	1449,96
874,16	1507,30
874,33	1456,11
874,50	1464,30
874,67	1449,96
874,84	1488,87
875,01	1521,64
875,18	1511,40
875,35	1409,00
875,51	1554,41
875,68	1550,31
875,85	1533,93
876,02	1499,11
876,19	1570,79
876,36	1523,69
876,53	1499,11
876,69	1550,31
876,86	1533,93
877,03	1509,35
877,20	1521,64
877,37	1523,69
877,54	1497,07
877,71	1591,27
877,87	1603,56
878,04	1558,50
878,21	1390,57
878,38	1497,07
878,55	1513,45
878,72	1519,59
878,88	1439,72
879,05	1628,14
879,22	1554,41
879,39	1521,64
879,56	1480,68
879,73	1480,68
879,89	1456,11
880,06	1628,14
880,23	1490,92
880,40	1497,07
880,57	1466,35
880,74	1488,87
880,90	1529,83
881,07	1540,07
881,24	1533,93
881,41	1501,16
881,58	1497,07
881,74	1574,89
881,91	1538,02
882,08	1556,46
882,25	1662,95
882,42	1447,91
882,58	1693,67
882,75	1538,02
882,92	1538,02
883,09	1482,73
883,26	1562,60
883,42	1570,79
883,59	1488,87
883,76	1386,47
883,93	1558,50
884,09	1488,87
884,26	1562,60
884,43	1589,22
884,60	1540,07
884,77	1572,84
884,93	1554,41
885,10	1478,63
885,27	1619,94
885,44	1587,18
885,60	1611,75
885,77	1548,26
885,94	1556,46
886,11	1589,22
886,27	1505,26
886,44	1568,74
886,61	1556,46
886,78	1542,12
886,94	1558,50
887,11	1505,26
887,28	1548,26
887,45	1501,16
887,61	1562,60
887,78	1521,64
887,95	1439,72
888,12	1525,74
888,28	1554,41
888,45	1538,02
888,62	1431,53
888,78	1529,83
888,95	1542,12
889,12	1433,58
889,29	1570,79
889,45	1464,30
889,62	1603,56
889,79	1595,37
889,95	1488,87
890,12	1546,22
890,29	1490,92
890,46	1542,12
890,62	1472,49
>>>>>End Processed Spectral Data<<<<<
